T(K),Cp_Thiswork
200.0,35.42699073844801
201.0,35.478115176551256
202.0,35.52990818621076
203.0,35.582364950454505
204.0,35.63548443750261
205.0,35.689263137802115
206.0,35.74369657729768
207.0,35.7987825561372
208.0,35.85451629379705
209.0,35.910895705740245
210.0,35.96791755748947
211.0,36.02557836331714
212.0,36.08387350066578
213.0,36.14279882925082
214.0,36.20235241299247
215.0,36.262529119022105
216.0,36.323324227621995
217.0,36.384735236165234
218.0,36.44675720521008
219.0,36.50938688514101
220.0,36.5726192220657
221.0,36.63645054609227
222.0,36.700875245069774
223.0,36.76589156532029
224.0,36.831493180231725
225.0,36.897675903228084
226.0,36.9644353546869
227.0,37.03176647493246
228.0,37.09966546856843
229.0,37.1681276036978
230.0,37.23714822602649
231.0,37.30672257597898
232.0,37.37684567758436
233.0,37.44751350582491
234.0,37.51871962094212
235.0,37.59046156665515
236.0,37.66273128198294
237.0,37.73552731005669
238.0,37.808842565690014
239.0,37.88267250227719
240.0,37.95701204686823
241.0,38.03185657344676
242.0,38.107201617577076
243.0,38.183040721884026
244.0,38.2593702470836
245.0,38.33618367265586
246.0,38.41347718439407
247.0,38.4912448932502
248.0,38.56948222646815
249.0,38.64818366624462
250.0,38.7273438851024
251.0,38.806958291901495
252.0,38.88702143174635
253.0,38.96752812355471
254.0,39.04847268465694
255.0,39.12985041987801
256.0,39.21165717202568
257.0,39.29388644130194
258.0,39.376533191604196
259.0,39.45959186987286
260.0,39.54305910562755
261.0,39.62692802240376
262.0,39.71119316462805
263.0,39.79585110462716
264.0,39.88089507109433
265.0,39.96632080912808
266.0,40.05212281968265
267.0,40.13829566200597
268.0,40.22483463786038
269.0,40.311734320502836
270.0,40.398990049256355
271.0,40.48659674671704
272.0,40.574548686936794
273.0,40.66284083080161
274.0,40.751469327481296
275.0,40.84042728310951
276.0,40.92971160085936
277.0,41.019315551998346
278.0,41.1092348564505
279.0,41.199464982968934
280.0,41.29000052488476
281.0,41.38083650880135
282.0,41.47196738687645
283.0,41.56339036126744
284.0,41.65509837170438
285.0,41.747087660561206
286.0,41.83935254622337
287.0,41.93188897002068
288.0,42.02469224424458
289.0,42.117757081995954
290.0,42.21107823703599
291.0,42.30465323348816
292.0,42.39847442937666
293.0,42.492539077997506
294.0,42.58684321017976
295.0,42.6813802193947
296.0,42.77614562593516
297.0,42.87113728279006
298.0,42.96634812254788
299.0,43.06177516395227
300.0,43.1574134309289
301.0,43.253257989626746
302.0,43.34930506129068
303.0,43.4455500481135
304.0,43.541988935762156
305.0,43.6386169112827
306.0,43.73543055870493
307.0,43.83242431444084
308.0,43.929595353759105
309.0,44.02693845273256
310.0,44.12444949999559
311.0,44.22212467603476
312.0,44.3199607081101
313.0,44.417952774695095
314.0,44.51609687803436
315.0,44.61438750412208
316.0,44.712824072653966
317.0,44.81140009821476
318.0,44.91011247823475
319.0,45.00895711481435
320.0,45.10793070182642
321.0,45.207028951758005
322.0,45.3062483670589
323.0,45.40558547801558
324.0,45.505035352080924
325.0,45.604596077557304
326.0,45.70426303564801
327.0,45.80403288301039
328.0,45.90390181404942
329.0,46.00386703780482
330.0,46.10392383230421
331.0,46.2040699582073
332.0,46.30430173680024
333.0,46.40461528045389
334.0,46.50500770744232
335.0,46.60547543779937
336.0,46.70601565073609
337.0,46.80662458797997
338.0,46.90729924956274
339.0,47.00803666610845
340.0,47.10883317567992
341.0,47.20968635394254
342.0,47.310592119976874
343.0,47.41154859307254
344.0,47.51255271833719
345.0,47.61360050852451
346.0,47.71468993429549
347.0,47.81581731038882
348.0,47.91697994545191
349.0,48.01817614415345
350.0,48.11940158756684
351.0,48.220654641684376
352.0,48.321931770256
353.0,48.423230917575175
354.0,48.52454933272534
355.0,48.625883564796226
356.0,48.72723213493206
357.0,48.82859140576801
358.0,48.929959227533956
359.0,49.031332992347
360.0,49.13271134685059
361.0,49.2340902710703
362.0,49.335467484565314
363.0,49.43684197121708
364.0,49.5382102794222
365.0,49.63957046426508
366.0,49.74091936720094
367.0,49.84225584507197
368.0,49.943576289927876
369.0,50.04488037009448
370.0,50.146164527397254
371.0,50.24742748805048
372.0,50.34866700117271
373.0,50.44987982231672
374.0,50.55106475983555
375.0,50.65221989070362
376.0,50.75334306157232
377.0,50.85443240011107
378.0,50.95548502402959
379.0,51.0565001419461
380.0,51.15747595974858
381.0,51.25840939861504
382.0,51.359300015729225
383.0,51.460145564875276
384.0,51.56094381625243
385.0,51.66169282224989
386.0,51.76239172495018
387.0,51.86303728611999
388.0,51.96362977105339
389.0,52.064166520204424
390.0,52.164646239270354
391.0,52.2650665681099
392.0,52.36542597831362
393.0,52.46572517012782
394.0,52.565959087106776
395.0,52.666128195993444
396.0,52.766231062863426
397.0,52.86626458940907
398.0,52.96622961793693
399.0,53.06612393407694
400.0,53.16594561271596
401.0,53.265694741469474
402.0,53.36536656541011
403.0,53.46496379642056
404.0,53.56448343510135
405.0,53.66392305101388
406.0,53.76328255471461
407.0,53.862560129632115
408.0,53.961756037426554
409.0,54.0608685035516
410.0,54.15989426451216
411.0,54.25883543905442
412.0,54.357688189993254
413.0,54.456453192717575
414.0,54.55512751626068
415.0,54.65371035315823
416.0,54.75220430230341
417.0,54.850603080129076
418.0,54.94890870639165
419.0,55.047119527451216
420.0,55.14523514656129
421.0,55.24325424635508
422.0,55.34117519936699
423.0,55.43899733383813
424.0,55.536719996447474
425.0,55.634341908824936
426.0,55.73186244428395
427.0,55.82928229260759
428.0,55.92659827024603
429.0,56.02380912750314
430.0,56.120916913287644
431.0,56.217918446484816
432.0,56.31481450296903
433.0,56.41160389421562
434.0,56.508283755065094
435.0,56.60485658964011
436.0,56.70131988865015
437.0,56.79767418453915
438.0,56.89391798948998
439.0,56.99005015396192
440.0,57.08607125626723
441.0,57.181978436219
442.0,57.277774031675804
443.0,57.37345413886965
444.0,57.4690211362101
445.0,57.56447428362016
446.0,57.65981284596795
447.0,57.7550328817959
448.0,57.85013792189544
449.0,57.94512473851562
450.0,58.039994763325225
451.0,58.13474874358043
452.0,58.22938198269638
453.0,58.32389447968957
454.0,58.41829213785199
455.0,58.512567300510725
456.0,58.606723700071896
457.0,58.700758062664235
458.0,58.794671938851266
459.0,58.88846428580527
460.0,58.98213405471168
461.0,59.0756824661633
462.0,59.169108868074304
463.0,59.26240993058714
464.0,59.35559111165858
465.0,59.4486460150074
466.0,59.541578215419875
467.0,59.634384746057066
468.0,59.72706923631998
469.0,59.819627543803776
470.0,59.91206097585247
471.0,60.004368102775715
472.0,60.09655303164867
473.0,60.18860799578309
474.0,60.28053910267464
475.0,60.3723433321491
476.0,60.464021247574465
477.0,60.55557463892502
478.0,60.64699964602032
479.0,60.73829805753485
480.0,60.829467195411965
481.0,60.9205092700455
482.0,61.011422409055214
483.0,61.102211329728505
484.0,61.19287335252341
485.0,61.283403262686946
486.0,61.37380580112773
487.0,61.46408284294367
488.0,61.5542303995861
489.0,61.64424780530851
490.0,61.73413608082619
491.0,61.823897962023054
492.0,61.913531103033804
493.0,62.00303398166233
494.0,62.092408490297004
495.0,62.18165826916105
496.0,62.270773604773524
497.0,62.35976156797652
498.0,62.44862148908783
499.0,62.53735094170074
500.0,62.625950093151786
501.0,62.71442174581651
502.0,62.80276565040248
503.0,62.89097669000758
504.0,62.97906120654527
505.0,63.06701583452295
506.0,63.154843852755974
507.0,63.242538288071785
508.0,63.33010508908583
509.0,63.41754217223891
510.0,63.50485193659905
511.0,63.59203454139629
512.0,63.67908605827678
513.0,63.76600705916144
514.0,63.85280222360319
515.0,63.939465296052234
516.0,64.0260018744482
517.0,64.11240933099059
518.0,64.19868592526471
519.0,64.28483636627452
520.0,64.3708570595511
521.0,64.45674994420676
522.0,64.54251603991999
523.0,64.62815169649677
524.0,64.71366211894653
525.0,64.79904457349379
526.0,64.88429629073515
527.0,64.96941965659614
528.0,65.05441707188298
529.0,65.13928668433569
530.0,65.22402946648369
531.0,65.3086444853709
532.0,65.39313413216767
533.0,65.47749267527296
534.0,65.56172727101983
535.0,65.64583551671141
536.0,65.72981305102635
537.0,65.81366705119271
538.0,65.89739555392114
539.0,65.98099802272456
540.0,66.06447244819995
541.0,66.14782409637442
542.0,66.23104899635287
543.0,66.31414655534572
544.0,66.39712057307025
545.0,66.47996996014611
546.0,66.56268918104423
547.0,66.64528742645521
548.0,66.7277616051596
549.0,66.8101110627401
550.0,66.89233364119264
551.0,66.9744365854636
552.0,67.0564132571314
553.0,67.13826393125632
554.0,67.21999236555489
555.0,67.30159383303109
556.0,67.38308158788921
557.0,67.46444087201886
558.0,67.54567741365605
559.0,67.62679042373789
560.0,67.70778312692266
561.0,67.78865168670715
562.0,67.86939981309033
563.0,67.95002413516792
564.0,68.030528855205
565.0,68.11090701139477
566.0,68.19116939124066
567.0,68.27130900016472
568.0,68.35132950204513
569.0,68.43123150143623
570.0,68.51100535866306
571.0,68.59066390816284
572.0,68.67020311004396
573.0,68.74962299658614
574.0,68.82892101297114
575.0,68.90810127098837
576.0,68.98715654313715
577.0,69.06610175141142
578.0,69.14492396085791
579.0,69.22362878945214
580.0,69.30221772077682
581.0,69.38068600384572
582.0,69.45903560104408
583.0,69.53726690767185
584.0,69.61538186583768
585.0,69.69338084630839
586.0,69.77126211815778
587.0,69.84902966984137
588.0,69.92667494520178
589.0,70.00421235666194
590.0,70.08162388762703
591.0,70.15893074846082
592.0,70.2361101400291
593.0,70.3131816982894
594.0,70.39013567863037
595.0,70.46697859214396
596.0,70.54370063254753
597.0,70.6203140747853
598.0,70.69681275802978
599.0,70.77319417776224
600.0,70.8494637267883
601.0,70.92561939578434
602.0,71.00166232494414
603.0,71.07758622803426
604.0,71.15340332377342
605.0,71.22910782251539
606.0,71.30470079581978
607.0,71.38018170675653
608.0,71.45555106028787
609.0,71.53080934355789
610.0,71.60595223985207
611.0,71.68098338428683
612.0,71.7559074658103
613.0,71.83071957650704
614.0,71.90541957466436
615.0,71.98001049786801
616.0,72.0544975037504
617.0,72.12886812812695
618.0,72.2031317547196
619.0,72.27728120553574
620.0,72.3513263700815
621.0,72.42526109657572
622.0,72.49908508574966
623.0,72.57280711211023
624.0,72.64641453609636
625.0,72.7199209111901
626.0,72.79331247795048
627.0,72.86660061454133
628.0,72.93978008217016
629.0,73.0128541901368
630.0,73.08581229276898
631.0,73.15867588383712
632.0,73.23143052385805
633.0,73.30407675860161
634.0,73.376618332028
635.0,73.44905628644403
636.0,73.52138627672659
637.0,73.59360822740405
638.0,73.66572740919439
639.0,73.73773941055599
640.0,73.80964892309885
641.0,73.88146008098965
642.0,73.95316518472227
643.0,74.02475114173491
644.0,74.09624457046131
645.0,74.16764092573877
646.0,74.23892758513067
647.0,74.31011391841291
648.0,74.38119531233636
649.0,74.4521762585733
650.0,74.52305800391841
651.0,74.59383103606592
652.0,74.66450085173213
653.0,74.73507131257729
654.0,74.80553874293818
655.0,74.87590749356494
656.0,74.94618296203848
657.0,75.01634692010023
658.0,75.08640847674664
659.0,75.15637778305074
660.0,75.22624030179324
661.0,75.29600667089234
662.0,75.36567142222673
663.0,75.43524460152102
664.0,75.5047035570659
665.0,75.57407649164647
666.0,75.64334392404308
667.0,75.7125120505945
668.0,75.7815902442928
669.0,75.85055950691407
670.0,75.9194387852542
671.0,75.9882149215179
672.0,76.05689718094705
673.0,76.12548144483038
674.0,76.19396731096364
675.0,76.2623559529013
676.0,76.33064211977823
677.0,76.39883546536122
678.0,76.46694187226998
679.0,76.53494642385492
680.0,76.60284538071741
681.0,76.6706573230828
682.0,76.73837791061375
683.0,76.80599375393429
684.0,76.87351854719569
685.0,76.94095319215438
686.0,77.0082879541384
687.0,77.07552793716502
688.0,77.14267343925619
689.0,77.20972949656512
690.0,77.2766868198385
691.0,77.34355039386611
692.0,77.41032093676321
693.0,77.47699755369327
694.0,77.5435819641895
695.0,77.6100732192374
696.0,77.67647666990058
697.0,77.74278340497207
698.0,77.80899293185507
699.0,77.87511525080849
700.0,77.94113665672889
701.0,78.00708651900565
702.0,78.07293059742585
703.0,78.13868349137991
704.0,78.20434610584768
705.0,78.26991826799288
706.0,78.33540082374135
707.0,78.40079302018908
708.0,78.46609564539045
709.0,78.53130893470771
710.0,78.59642318875618
711.0,78.66145840415955
712.0,78.72639024236844
713.0,78.79124329970357
714.0,78.8560030930368
715.0,78.92067851917096
716.0,78.98525870802743
717.0,79.04974782506886
718.0,79.11416034363535
719.0,79.17847445509585
720.0,79.2427045676482
721.0,79.30685984374946
722.0,79.37089781906643
723.0,79.43485858304462
724.0,79.49873572437873
725.0,79.56253310848489
726.0,79.6262340132576
727.0,79.68984740567024
728.0,79.75337706106781
729.0,79.8168215894636
730.0,79.88018469021254
731.0,79.94343936585292
732.0,80.00662504262533
733.0,80.06972487491103
734.0,80.13274242638188
735.0,80.19566087005367
736.0,80.25849898560064
737.0,80.32125513937795
738.0,80.3839276738537
739.0,80.44651490776467
740.0,80.50900502230616
741.0,80.57142663170477
742.0,80.63374764258312
743.0,80.69600159076776
744.0,80.7581664564523
745.0,80.820245428634
746.0,80.88223662840335
747.0,80.94413815433043
748.0,81.00596811677705
749.0,81.06769948361266
750.0,81.12936527755198
751.0,81.19093844678156
752.0,81.25243191047917
753.0,81.31384355886922
754.0,81.37517126038712
755.0,81.43641286187047
756.0,81.49757610382427
757.0,81.558658751382
758.0,81.61965854845386
759.0,81.68056828004482
760.0,81.74140046159472
761.0,81.80216750808503
762.0,81.86282763799437
763.0,81.9234227517178
764.0,81.98392092314133
765.0,82.04434913782447
766.0,82.10470485446113
767.0,82.16496109329418
768.0,82.2251543907995
769.0,82.28524799541773
770.0,82.34527341086824
771.0,82.4052230796867
772.0,82.4650846045335
773.0,82.52486983449907
774.0,82.5845615074334
775.0,82.6441955311233
776.0,82.70373526125
777.0,82.76319718098978
778.0,82.82258322304537
779.0,82.88189047487263
780.0,82.94112079794444
781.0,83.00027600741171
782.0,83.05933876474681
783.0,83.11832518931648
784.0,83.17723698000208
785.0,83.23606628021672
786.0,83.29482423613601
787.0,83.35350292926287
788.0,83.41211338460612
789.0,83.47062399775481
790.0,83.52907880722536
791.0,83.58743675833833
792.0,83.64573225928456
793.0,83.7039337359398
794.0,83.76206602666545
795.0,83.82012569632839
796.0,83.87809995212234
797.0,83.93601336128283
798.0,83.99383441664388
799.0,84.05157826901323
800.0,84.10924600990658
801.0,84.16685258627906
802.0,84.22436655481796
803.0,84.28180743927717
804.0,84.33917154685406
805.0,84.39645977457263
806.0,84.45368216418346
807.0,84.51082113520341
808.0,84.56788665934926
809.0,84.62487032177131
810.0,84.68180022664146
811.0,84.73862682203809
812.0,84.79538724448699
813.0,84.85207748839227
814.0,84.90867541727924
815.0,84.96522232516868
816.0,85.02166889134767
817.0,85.0780697492995
818.0,85.13438014716925
819.0,85.19061847488626
820.0,85.2467939886683
821.0,85.30287557594752
822.0,85.35889929517926
823.0,85.41484295796768
824.0,85.47071119467533
825.0,85.52649524039592
826.0,85.58222625198239
827.0,85.63786874811966
828.0,85.69344488453673
829.0,85.74894575673294
830.0,85.80436688753959
831.0,85.8597301443484
832.0,85.9150045910086
833.0,85.97022073603998
834.0,86.02534768399315
835.0,86.08042446922026
836.0,86.13540278778937
837.0,86.19032584204567
838.0,86.24516279653021
839.0,86.29993058842223
840.0,86.35463735186225
841.0,86.40926526816236
842.0,86.46382671634703
843.0,86.51831248187263
844.0,86.57273051448861
845.0,86.6270630138533
846.0,86.6813477405448
847.0,86.73553696155244
848.0,86.78966826771594
849.0,86.84373226213113
850.0,86.89770688462632
851.0,86.95161667428435
852.0,87.00546064104351
853.0,87.05924617569706
854.0,87.11294278219438
855.0,87.16657044968234
856.0,87.22014060235959
857.0,87.27362280070753
858.0,87.32705344319336
859.0,87.38039378362788
860.0,87.43367585733195
861.0,87.4868941462239
862.0,87.54003074484623
863.0,87.5931008282043
864.0,87.64610706505917
865.0,87.69903153697369
866.0,87.75190968188447
867.0,87.8046866754513
868.0,87.85741416195327
869.0,87.91007004504189
870.0,87.96265674216583
871.0,88.01518066164567
872.0,88.06761171385939
873.0,88.1200088143625
874.0,88.17230548629395
875.0,88.22456035903573
876.0,88.27673928455862
877.0,88.32883637501881
878.0,88.38088568087109
879.0,88.43285716671116
880.0,88.48475281871318
881.0,88.53658249793381
882.0,88.588355937013
883.0,88.64005509103384
884.0,88.69169355900969
885.0,88.74324545095757
886.0,88.79475176947376
887.0,88.84619046678677
888.0,88.89753183070627
889.0,88.94884382290036
890.0,89.00007318409408
891.0,89.05124858149856
892.0,89.10233255421518
893.0,89.15336906841908
894.0,89.20433226273519
895.0,89.25522338702845
896.0,89.30607050083456
897.0,89.35682478200896
898.0,89.40752185581172
899.0,89.45815505044864
900.0,89.50872151216885
901.0,89.55922595728555
902.0,89.60966544164533
903.0,89.66003700223025
904.0,89.71035273298376
905.0,89.76059072866168
906.0,89.8107555005236
907.0,89.86087018846827
908.0,89.91092032900865
909.0,89.96090644813673
910.0,90.01081415138506
911.0,90.06068105298563
912.0,90.11045926935732
913.0,90.16018621931116
914.0,90.20983631691387
915.0,90.25941723672422
916.0,90.30896219597808
917.0,90.35842359398974
918.0,90.40781625487584
919.0,90.45715481696686
920.0,90.50643194383503
921.0,90.55563307338436
922.0,90.60478710655654
923.0,90.65386132231723
924.0,90.70287002622246
925.0,90.75182734039632
926.0,90.80071498102855
927.0,90.84954336298854
928.0,90.89831562663178
929.0,90.94701705865542
930.0,90.99564722196789
931.0,91.04421978509231
932.0,91.09272353148869
933.0,91.14116138496526
934.0,91.18955024045657
935.0,91.23787524549596
936.0,91.2861391163881
937.0,91.33433054512504
938.0,91.38247306628503
939.0,91.430524006509
940.0,91.47854836166273
941.0,91.5264723226706
942.0,91.57434330867206
943.0,91.62217729943862
944.0,91.66993179432146
945.0,91.7176262037291
946.0,91.7652455868375
947.0,91.8128227327491
948.0,91.8603119898114
949.0,91.907762904205
950.0,91.95512991414651
951.0,92.00244197246113
952.0,92.04969744652576
953.0,92.09688460918863
954.0,92.14401520328309
955.0,92.19107745151733
956.0,92.23807294890008
957.0,92.28502645276775
958.0,92.33189289506639
959.0,92.37868704542007
960.0,92.42544982402049
961.0,92.47212311205466
962.0,92.51875419831119
963.0,92.56530811022145
964.0,92.61179256388037
965.0,92.65824116364247
966.0,92.70459302872345
967.0,92.75091081429467
968.0,92.79714350455971
969.0,92.84332747845636
970.0,92.88943766867885
971.0,92.93546522281807
972.0,92.98146203072648
973.0,93.02737422368342
974.0,93.07324379067808
975.0,93.11902979539754
976.0,93.16476440153421
977.0,93.21041629668365
978.0,93.25602679634567
979.0,93.30153631147273
980.0,93.34700162065171
981.0,93.39239768739843
982.0,93.43774638260139
983.0,93.48302891620922
984.0,93.52821114428316
985.0,93.57336426789806
986.0,93.61841693380215
987.0,93.6634398571064
988.0,93.70836500517186
989.0,93.75322895237817
990.0,93.79805258426514
991.0,93.84277438397065
992.0,93.88745779671493
993.0,93.93203241395504
994.0,93.97657637330235
995.0,94.02104052133173
996.0,94.06543919844282
997.0,94.10977755206667
998.0,94.15401881005155
999.0,94.19820991542284
1000.0,94.6901679318943
1001.0,94.72221957066945
1002.0,94.75444839035448
1003.0,94.78691976960734
1004.0,94.8195403108444
1005.0,94.85236936839581
1006.0,94.8853841091524
1007.0,94.91857061245321
1008.0,94.95193245157321
1009.0,94.98548758015835
1010.0,95.0191960748563
1011.0,95.053058642557
1012.0,95.08711323231162
1013.0,95.1212858020586
1014.0,95.15565711032075
1015.0,95.19013629696492
1016.0,95.22476397208837
1017.0,95.25956896404661
1018.0,95.29446964418834
1019.0,95.32954008687457
1020.0,95.36472996914891
1021.0,95.40005108679522
1022.0,95.43550110404816
1023.0,95.47106095157443
1024.0,95.50674507348404
1025.0,95.54254831967516
1026.0,95.57843514589865
1027.0,95.61445306044405
1028.0,95.65060778084725
1029.0,95.6868281339389
1030.0,95.72316674553798
1031.0,95.75960471773669
