T(K),Cp_Thiswork
200.0,41.26713597612324
201.0,41.34307465998258
202.0,41.41951769010028
203.0,41.49646800894066
204.0,41.57392837098976
205.0,41.65190134572031
206.0,41.730388901514004
207.0,41.80939346220901
208.0,41.88891664913199
209.0,41.96896074321511
210.0,42.04952743571059
211.0,42.13061784292032
212.0,42.21223373486394
213.0,42.29437630745123
214.0,42.37704659698876
215.0,42.46024568188565
216.0,42.543974283994686
217.0,42.62823336727884
218.0,42.71302315094755
219.0,42.798344490984086
220.0,42.88419769978594
221.0,42.97058255946558
222.0,43.05749967560353
223.0,43.14494873936832
224.0,43.23292968769556
225.0,43.32144213015525
226.0,43.41048591912012
227.0,43.50006058278001
228.0,43.590165146975835
229.0,43.68079943989433
230.0,43.7719622335478
231.0,43.863652732175126
232.0,43.95587019692799
233.0,44.04861303887358
234.0,44.14188064043346
235.0,44.235671180378915
236.0,44.32998362453494
237.0,44.42481628637637
238.0,44.520167725528566
239.0,44.61603621414328
240.0,44.71241991837692
241.0,44.809317248960845
242.0,44.906726335237266
243.0,45.00464485891413
244.0,45.103071094882694
245.0,45.20200270059578
246.0,45.30143758116087
247.0,45.401373375313355
248.0,45.5018077988468
249.0,45.60273830693141
250.0,45.70416260178837
251.0,45.806078127742346
252.0,45.908482076867514
253.0,46.01137172488424
254.0,46.114744758713925
255.0,46.21859795741159
256.0,46.32292867975462
257.0,46.42773387755069
258.0,46.53301075174992
259.0,46.638756102775865
260.0,46.74496698136686
261.0,46.85164036407454
262.0,46.95877283622832
263.0,47.06636139403261
264.0,47.174402804314425
265.0,47.282893609254145
266.0,47.39183044523702
267.0,47.501210198284596
268.0,47.61102906397114
269.0,47.721283959578926
270.0,47.831971272441116
271.0,47.94308733294496
272.0,48.05462872397635
273.0,48.166591817022336
274.0,48.278972929224636
275.0,48.39176847737279
276.0,48.50497467297153
277.0,48.61858798073964
278.0,48.73260451106085
279.0,48.84702062858657
280.0,48.96183249854092
281.0,49.077036240112704
282.0,49.192628077152094
283.0,49.30860403951726
284.0,49.424960560609414
285.0,49.541693435652746
286.0,49.6587990129441
287.0,49.77627315570972
288.0,49.89411213106416
289.0,50.01231172582625
290.0,50.13086827710707
291.0,50.2497776448618
292.0,50.36903594624061
293.0,50.488638972285436
294.0,50.608583061881944
295.0,50.72886379492211
296.0,50.84947758852523
297.0,50.970420104891716
298.0,51.09168740947118
299.0,51.213275393858495
300.0,51.33518035067712
301.0,51.45739782766367
302.0,51.5799240611542
303.0,51.70275483180207
304.0,51.82588617967175
305.0,51.94931411893427
306.0,52.07303463875115
307.0,52.19704356280742
308.0,52.321336833454595
309.0,52.44591065218094
310.0,52.5707607749536
311.0,52.69588335885131
312.0,52.821274258458544
313.0,52.946929588768654
314.0,53.07284516451827
315.0,53.199017201045876
316.0,53.32544161477351
317.0,53.452114443566444
318.0,53.5790318464514
319.0,53.706189547518704
320.0,53.8335839493848
321.0,53.961211020542336
322.0,54.08906671376046
323.0,54.217147243291876
324.0,54.345448807486264
325.0,54.47396731310491
326.0,54.60269906694565
327.0,54.73164008511171
328.0,54.860786645604705
329.0,54.99013487468331
330.0,55.11968102285654
331.0,55.24942132730085
332.0,55.37935187490211
333.0,55.509469014741754
334.0,55.639768946055725
335.0,55.77024813015177
336.0,55.90090260498202
337.0,56.03172894490294
338.0,56.16272330159596
339.0,56.29388208919724
340.0,56.425201710419046
341.0,56.55667869340263
342.0,56.6883091452699
343.0,56.82008984539317
344.0,56.952017288832806
345.0,57.084086731855976
346.0,57.216297240959804
347.0,57.3486421415232
348.0,57.48112156864819
349.0,57.6137288280884
350.0,57.74646266923605
351.0,57.87931774155125
352.0,58.01229277250118
353.0,58.14538375341418
354.0,58.27858666551522
355.0,58.41189747975538
356.0,58.54531624238891
357.0,58.67883617906199
358.0,58.812455952618336
359.0,58.94617149129101
360.0,59.079981436211085
361.0,59.21387897005489
362.0,59.347865435864534
363.0,59.481933993883274
364.0,59.61608324090305
365.0,59.750310400461615
366.0,59.884612684669165
367.0,60.018985931294665
368.0,60.153427328517424
369.0,60.28793405250039
370.0,60.422504630689815
371.0,60.55713348793485
372.0,60.691820490434324
373.0,60.8265614007923
374.0,60.96135333196514
375.0,61.09619338350056
376.0,61.231078641251145
377.0,61.36600754284382
378.0,61.50097578082686
379.0,61.6359831312743
380.0,61.77102389067845
381.0,61.9060978065599
382.0,62.04120051070474
383.0,62.17633035375994
384.0,62.31148430305464
385.0,62.446660678428074
386.0,62.58185641477219
387.0,62.717068429460355
388.0,62.852296363381356
389.0,62.98753435814088
390.0,63.12278339126853
391.0,63.2580389381463
392.0,63.39329919803953
393.0,63.52856235222197
394.0,63.66382518964241
395.0,63.79908585266482
396.0,63.934342464333454
397.0,64.06959175234076
398.0,64.20483317417143
399.0,64.34006341542567
400.0,64.47528051550623
401.0,64.61048111425988
402.0,64.74566596230093
403.0,64.88083027613027
404.0,65.01597338313896
405.0,65.15109182897112
406.0,65.28618627485952
407.0,65.42125183663335
408.0,65.5562877457892
409.0,65.69129321022601
410.0,65.82626464765117
411.0,65.96119983007495
412.0,66.09609788610629
413.0,66.2309579185
414.0,66.36577623301974
415.0,66.50055187559148
416.0,66.63528247815536
417.0,66.76996702917145
418.0,66.9046044882964
419.0,67.03919100976057
420.0,67.1737254905664
421.0,67.30820818616657
422.0,67.4426351541318
423.0,67.57700658629263
424.0,67.71131986286136
425.0,67.84557232893025
426.0,67.97976546862218
427.0,68.11389377532876
428.0,68.24795866433878
429.0,68.381958733134
430.0,68.51588975604137
431.0,68.64975304244223
432.0,68.78354707912112
433.0,68.91726752519955
434.0,69.05091697342698
435.0,69.18449100429491
436.0,69.31798934285696
437.0,69.45141027873296
438.0,69.58475345692452
439.0,69.71801568783015
440.0,69.85119793005224
441.0,69.98429830625824
442.0,70.11731489523277
443.0,70.25024573128243
444.0,70.38309160095146
445.0,70.51585044952641
446.0,70.64852017591521
447.0,70.7811014309904
448.0,70.91359202065274
449.0,71.04598970258198
450.0,71.17829638608418
451.0,71.31050693188843
452.0,71.44262455223638
453.0,71.5746454082295
454.0,71.7065684107219
455.0,71.83839382037438
456.0,71.97012044544508
457.0,72.10174704166258
458.0,72.23327231160118
459.0,72.36469490406424
460.0,72.49601481488679
461.0,72.62723198509241
462.0,72.75834349718443
463.0,72.88934918026658
464.0,73.02024880660038
465.0,73.15104068942978
466.0,73.28172448529646
467.0,73.41229979185798
468.0,73.54276474592437
469.0,73.67311882559744
470.0,73.80336144814844
471.0,73.93349196935765
472.0,74.06350828208309
473.0,74.19341241891448
474.0,74.32320214637916
475.0,74.45287516768903
476.0,74.58243332234397
477.0,74.7118741835316
478.0,74.84119945811696
479.0,74.97040518747725
480.0,75.099492944004
481.0,75.2284600342856
482.0,75.35730929126579
483.0,75.48603648540573
484.0,75.6146443086311
485.0,75.74312839264425
486.0,75.87149128589249
487.0,75.99973127200779
488.0,76.12784795912896
489.0,76.25584088172043
490.0,76.38370810502752
491.0,76.5114518048522
492.0,76.6390698957417
493.0,76.76656161176551
494.0,76.89392611054879
495.0,77.02116386502483
496.0,77.14827526829295
497.0,77.27525785087721
498.0,77.40211184806195
499.0,77.5288374135879
500.0,77.65543322997408
501.0,77.78190067651738
502.0,77.90823688347356
503.0,78.03444306385677
504.0,78.1605175711367
505.0,78.28646144783399
506.0,78.41227426348001
507.0,78.53795411799625
508.0,78.66350317722062
509.0,78.78891798514326
510.0,78.91420053038567
511.0,79.03934994631332
512.0,79.16436527821963
513.0,79.28924686147187
514.0,79.41399356129965
515.0,79.53860690689153
516.0,79.66308420318568
517.0,79.78742679289343
518.0,79.91163454674567
519.0,80.03570586807616
520.0,80.15964181214092
521.0,80.28344196391788
522.0,80.40710581233637
523.0,80.53063138175256
524.0,80.6540220724808
525.0,80.77727434462638
526.0,80.90039002895408
527.0,81.02336812205024
528.0,81.14620752242918
529.0,81.26890975243674
530.0,81.39147486610459
531.0,81.51390009638894
532.0,81.63618801126799
533.0,81.7583369959898
534.0,81.88034804542723
535.0,82.00221933740262
536.0,82.12395165358029
537.0,82.24554566453422
538.0,82.36699923104364
539.0,82.4883141565956
540.0,82.60948808804584
541.0,82.73052395092895
542.0,82.85141917298643
543.0,82.9721751066491
544.0,83.092790304545
545.0,83.21326588988384
546.0,83.33360152899444
547.0,83.45379677455725
548.0,83.57385106545976
549.0,83.69376505932597
550.0,83.81353929335401
551.0,83.93317152521936
552.0,84.05266471597582
553.0,84.17201638802591
554.0,84.2912266048314
555.0,84.41029795422716
556.0,84.52922628375778
557.0,84.64801525614652
558.0,84.7666631214615
559.0,84.88516933096123
560.0,85.00353452840149
561.0,85.12175922881174
562.0,85.23984250785898
563.0,85.35778593692865
564.0,85.47558703054958
565.0,85.59324710403826
566.0,85.7107673363752
567.0,85.82814486619773
568.0,85.94538191582937
569.0,86.06247796857133
570.0,86.17943367440778
571.0,86.29624695953994
572.0,86.41291950429371
573.0,86.52945155507882
574.0,86.64584322192866
575.0,86.76209319281945
576.0,86.878201311283
577.0,86.99416984827899
578.0,87.10999708358077
579.0,87.22568372457638
580.0,87.34122905926732
581.0,87.45663351372792
582.0,87.57189737050771
583.0,87.6870207687759
584.0,87.80200370449285
585.0,87.91684603061104
586.0,88.03154745730123
587.0,88.1461088129566
588.0,88.26052951646398
589.0,88.3748101010911
590.0,88.48895094964625
591.0,88.60295104270021
592.0,88.71681046951944
593.0,88.83053041732158
594.0,88.94411066974976
595.0,89.05754961836409
596.0,89.17085047832633
597.0,89.28401009668427
598.0,89.39703137197952
599.0,89.50991209204363
600.0,89.62265360169519
601.0,89.735255851328
602.0,89.84771863584727
603.0,89.96004281972783
604.0,90.07222665892058
605.0,90.18427192438898
606.0,90.296178997005
607.0,90.40794566468057
608.0,90.51957442325103
609.0,90.63106516703816
610.0,90.7424164212604
611.0,90.85362897118533
612.0,90.96470463539214
613.0,91.075640251011
614.0,91.1864385066406
615.0,91.29709951176059
616.0,91.40762082188363
617.0,91.51800579909845
618.0,91.62825285646818
619.0,91.7383614371254
620.0,91.84833318572984
621.0,91.95816838189087
622.0,92.06786477519877
623.0,92.17742466512505
624.0,92.286847812437
625.0,92.39613380638458
626.0,92.50528323346057
627.0,92.614296499929
628.0,92.72317150689172
629.0,92.83191179868756
630.0,92.9405149224028
631.0,93.04898288903595
632.0,93.15731405514512
633.0,93.26550891201282
634.0,93.3735689131827
635.0,93.48149188377967
636.0,93.58928119655212
637.0,93.69693317432402
638.0,93.8044519469498
639.0,93.9118334832569
640.0,94.01908152395563
641.0,94.12619394515677
642.0,94.23317183415413
643.0,94.34001608032672
644.0,94.44672401412639
645.0,94.55329839216199
646.0,94.6597395240756
647.0,94.76604530049396
648.0,94.87221788032645
649.0,94.97825588767367
650.0,95.08416108017894
651.0,95.1899328008434
652.0,95.2955702043223
653.0,95.40107554684296
654.0,95.50644649180258
655.0,95.61168598258615
656.0,95.7167912950169
657.0,95.82176387463835
658.0,95.92660495289893
659.0,96.03131338885179
660.0,96.13588892896767
661.0,96.24033219462073
662.0,96.3446446695368
663.0,96.44882441253834
664.0,96.55287249583857
665.0,96.65678871229939
666.0,96.76057371131631
667.0,96.86422792873823
668.0,96.9677505335023
669.0,97.0711425988299
670.0,97.17440287913894
671.0,97.27753307114646
672.0,97.38053255565264
673.0,97.48340154920403
674.0,97.58614109155687
675.0,97.68874889274595
676.0,97.79122763502671
677.0,97.8935787272795
678.0,97.9957910276327
679.0,98.09788094303937
680.0,98.19984610532025
681.0,98.30167377219726
682.0,98.40338158355193
683.0,98.50494626387012
684.0,98.60639505988554
685.0,98.7077043511372
686.0,98.80889071958836
687.0,98.90995031488602
688.0,99.01087910608076
689.0,99.1116828381698
690.0,99.2123570391761
691.0,99.31290695980702
692.0,99.41331782471659
693.0,99.51361416486564
694.0,99.6137709372939
695.0,99.71381207937753
696.0,99.81372199842981
697.0,99.91350450591028
698.0,100.01315343856419
699.0,100.11268181336605
700.0,100.21208297773035
701.0,100.3113597360218
702.0,100.41050503960861
703.0,100.50953080006491
704.0,100.60842949523332
705.0,100.707202953972
706.0,100.80584327417506
707.0,100.90436129420193
708.0,101.00275806862913
709.0,101.10102501277548
710.0,101.1991721178447
711.0,101.29719035466982
712.0,101.39507986041387
713.0,101.49284979842662
714.0,101.59049973206905
715.0,101.68801976918071
716.0,101.78540907885457
717.0,101.8826849093132
718.0,101.9798275297297
719.0,102.07685360862035
720.0,102.17375213989548
721.0,102.27053009222382
722.0,102.36718507995008
723.0,102.46371449481302
724.0,102.5601244675542
725.0,102.6564029358614
726.0,102.75256444312504
727.0,102.8486053445767
728.0,102.94452178484026
729.0,103.04030970033531
730.0,103.13598240108264
731.0,103.23153524512708
732.0,103.32695465644942
733.0,103.42226179408146
734.0,103.51744257527925
735.0,103.61250878343373
736.0,103.70744592384288
737.0,103.80226520438461
738.0,103.8969602933646
739.0,103.99154174963478
740.0,104.08599420134142
741.0,104.1803276532402
742.0,104.27454325839935
743.0,104.36863346075789
744.0,104.4626073286336
745.0,104.55646517096672
746.0,104.6501903380573
747.0,104.74380769790032
748.0,104.83730008541058
749.0,104.93067506478545
750.0,105.02392336387507
751.0,105.11706016809403
752.0,105.21007565734695
753.0,105.30296801389218
754.0,105.3957514071097
755.0,105.48840716605373
756.0,105.58094885301125
757.0,105.67336545364832
758.0,105.76566985273962
759.0,105.85785052946046
760.0,105.94991970362348
761.0,106.04186536007062
762.0,106.13369116546424
763.0,106.22540832489669
764.0,106.31700406376379
765.0,106.40847331567288
766.0,106.49983417351434
767.0,106.59108089621539
768.0,106.68219979441844
769.0,106.77320792313839
770.0,106.86409875719771
771.0,106.95487322745059
772.0,107.04553195914211
773.0,107.13607527528359
774.0,107.22650319999944
775.0,107.31680791209745
776.0,107.4070039743998
777.0,107.49707546161157
778.0,107.58703625558913
779.0,107.6768848568177
780.0,107.76661207067536
781.0,107.85622331400633
782.0,107.94572362605008
783.0,108.03511033483028
784.0,108.12437319273256
785.0,108.21353093534782
786.0,108.30256543245002
787.0,108.39149467134263
788.0,108.4803000434512
789.0,108.56899880273522
790.0,108.65757903029382
791.0,108.74604292758315
792.0,108.83439945763287
793.0,108.92263591463858
794.0,109.01076061813309
795.0,109.09877443066488
796.0,109.18667089092222
797.0,109.27445029224262
798.0,109.36212650511261
799.0,109.44968519410205
800.0,109.53712571134203
801.0,109.62446084433485
802.0,109.71167549340808
803.0,109.79878174390436
804.0,109.88577759459825
805.0,109.97266075406131
806.0,110.05942864447654
807.0,110.14608512435532
808.0,110.23262697916391
809.0,110.31906405714045
810.0,110.4053791607615
811.0,110.49159473818915
812.0,110.57768641896939
813.0,110.66367585552442
814.0,110.74955132716764
815.0,110.83531400070308
816.0,110.92096469725011
817.0,111.00651036666808
818.0,111.09193818670218
819.0,111.17726088294964
820.0,111.26246507001706
821.0,111.34756909476359
822.0,111.43255260434938
823.0,111.51743316368271
824.0,111.60220253759132
825.0,111.68685855606928
826.0,111.7714049973439
827.0,111.8558452447902
828.0,111.9401760886748
829.0,112.02439402967771
830.0,112.10850143826443
831.0,112.1925003083271
832.0,112.27639226192312
833.0,112.36017855399214
834.0,112.44384795646243
835.0,112.52741321898137
836.0,112.61086850969288
837.0,112.69421373187542
838.0,112.77745441099387
839.0,112.86058375369906
840.0,112.94360656460296
841.0,113.02652132867767
842.0,113.10932620554458
843.0,113.19202488423592
844.0,113.2746148182251
845.0,113.35709314967356
846.0,113.43946827640133
847.0,113.52173659427721
848.0,113.60389420205657
849.0,113.68594833156699
850.0,113.76789436468654
851.0,113.84973306782564
852.0,113.93146483855534
853.0,114.01308971062116
854.0,114.09460735891045
855.0,114.17601710444666
856.0,114.25732347471646
857.0,114.33852503104225
858.0,114.41961448504804
859.0,114.50060625841024
860.0,114.58148684476008
861.0,114.66225892468833
862.0,114.74293019459708
863.0,114.82349165876568
864.0,114.90395023763763
865.0,114.984307015983
866.0,115.06455202153074
867.0,115.14469633134796
868.0,115.22473459665738
869.0,115.30466645614429
870.0,115.38449643343142
871.0,115.46421815062561
872.0,115.54383537508296
873.0,115.62335144010821
874.0,115.70275892163103
875.0,115.7820655722671
876.0,115.86126839814804
877.0,115.94036917927413
878.0,116.01935912864332
879.0,116.09824946394643
880.0,116.17704076328764
881.0,116.2557231794888
882.0,116.33430163909036
883.0,116.41278060729067
884.0,116.49115418171382
885.0,116.56942111048537
886.0,116.64758961013142
887.0,116.72565758788632
888.0,116.803617725934
889.0,116.88147700529315
890.0,116.95923707127211
891.0,117.03688952656557
892.0,117.11444010761109
893.0,117.19189406739896
894.0,117.26924191969971
895.0,117.34648814872595
896.0,117.4236320590366
897.0,117.5006772699208
898.0,117.5776175977432
899.0,117.65446053536716
900.0,117.73119914881715
901.0,117.80783545829577
902.0,117.88437105502314
903.0,117.96080710741931
904.0,118.03714436723322
905.0,118.11337863660927
906.0,118.18950990979538
907.0,118.26554678380454
908.0,118.3414793835238
909.0,118.41731098789938
910.0,118.49303997547457
911.0,118.56867320013993
912.0,118.64420377811443
913.0,118.71963770073985
914.0,118.79497171568931
915.0,118.87020222035945
916.0,118.94533826254889
917.0,119.0203710768035
918.0,119.09530452346972
919.0,119.17014198920114
920.0,119.24487787758868
921.0,119.31951475768358
922.0,119.39405052276531
923.0,119.46849109824964
924.0,119.54282933972156
925.0,119.61707448262044
926.0,119.69121444274582
927.0,119.76526171966542
928.0,119.8392076140886
929.0,119.91305544924278
930.0,119.98680399680707
931.0,120.06045975471807
932.0,120.13401251798028
933.0,120.20746794275856
934.0,120.28082716079064
935.0,120.35408687372338
936.0,120.42725136760366
937.0,120.50031652070783
938.0,120.57328573987894
939.0,120.64615802890941
940.0,120.71893198622189
941.0,120.79160969954253
942.0,120.86418892558545
943.0,120.93667088999936
944.0,121.00906020983979
945.0,121.08134953425922
946.0,121.15354262631357
947.0,121.22563896988756
948.0,121.29764140167593
949.0,121.36954477299173
950.0,121.44135481028134
951.0,121.51306554777253
952.0,121.58468181008224
953.0,121.65620421971006
954.0,121.72762928606907
955.0,121.79895680610629
956.0,121.87019343050403
957.0,121.94133076623086
958.0,122.01237456907478
959.0,122.08332287837256
960.0,122.15417691276373
961.0,122.2249374378309
962.0,122.29560122912497
963.0,122.36617174512
964.0,122.43664843797595
965.0,122.50703033727065
966.0,122.57731953983593
967.0,122.64751420642456
968.0,122.7176155495156
969.0,122.78762432802273
970.0,122.85753743476079
971.0,122.92736160212749
972.0,122.99708945042023
973.0,123.06672679999929
974.0,123.13627221669627
975.0,123.205723861028
976.0,123.27508615602471
977.0,123.34435638570838
978.0,123.4135380536188
979.0,123.4826276008032
980.0,123.55162437439745
981.0,123.62053381805569
982.0,123.68935436841166
983.0,123.75808406387166
984.0,123.8267269777903
985.0,123.89528029053751
986.0,123.96374717705334
987.0,124.03212716413987
988.0,124.10041936628494
989.0,124.16862877585534
990.0,124.23674737119691
991.0,124.3047855328175
992.0,124.37273754776645
993.0,124.44060664528394
994.0,124.50839558495439
995.0,124.57610055357729
996.0,124.64372348420954
997.0,124.71126586930353
998.0,124.77873178603542
999.0,124.84611883358124
1000.0,124.91832372042118
1001.0,124.98497454889458
1002.0,125.05155402652105
1003.0,125.11806227130829
1004.0,125.1845018778234
1005.0,125.25086909675775
1006.0,125.31716269686531
1007.0,125.38338390546711
1008.0,125.44952770794099
1009.0,125.5156001913386
1010.0,125.58159830886545
1011.0,125.64752144921299
1012.0,125.71336572205028
1013.0,125.77913529147592
1014.0,125.84482817738022
1015.0,125.91044476098863
1016.0,125.97598772820444
1017.0,126.04143160905343
1018.0,126.10681696671497
1019.0,126.17212016387971
1020.0,126.23734478805072
