T(K),Cp_Thiswork
200.0,33.88851280371758
201.0,33.90720356545478
202.0,33.926259759716366
203.0,33.945684701131185
204.0,33.96548176964975
205.0,33.98565398600464
206.0,34.00620443723305
207.0,34.02713585993857
208.0,34.04845099035164
209.0,34.07015249336523
210.0,34.09224276267107
211.0,34.11472412659426
212.0,34.137598847316944
213.0,34.160868991044474
214.0,34.184536497270145
215.0,34.208603244384804
216.0,34.233070986178255
217.0,34.25794129187868
218.0,34.283215674502
219.0,34.3088955290829
220.0,34.33498219533298
221.0,34.3614768371189
222.0,34.38838050678249
223.0,34.41569414723388
224.0,34.443418652298895
225.0,34.471554808321414
226.0,34.50010329623287
227.0,34.52906463692973
228.0,34.55843930821285
229.0,34.58822779974432
230.0,34.618430279241615
231.0,34.649047096068145
232.0,34.68007785103919
233.0,34.711523357331394
234.0,34.743383299853
235.0,34.775657283822504
236.0,34.80834535725631
237.0,34.841446956336
238.0,34.874961953853344
239.0,34.9088896242182
240.0,34.94322967234363
241.0,34.97798171480295
242.0,35.01314429743929
243.0,35.04871738131635
244.0,35.08469986020246
245.0,35.12109104356636
246.0,35.157889687711204
247.0,35.19509495880447
248.0,35.232705947156404
249.0,35.27072074785235
250.0,35.309139243447675
251.0,35.347959403326776
252.0,35.3871800575668
253.0,35.42679952530933
254.0,35.466817394188695
255.0,35.50723097902509
256.0,35.54803930539872
257.0,35.58924089435892
258.0,35.63083378468407
259.0,35.67281639198258
260.0,35.715187075246455
261.0,35.75794372762137
262.0,35.80108501807353
263.0,35.844608338846584
264.0,35.88851265891536
265.0,35.93279528593058
266.0,35.97745429317417
267.0,36.02248809508943
268.0,36.067894277798054
269.0,36.113670398418584
270.0,36.159814739735445
271.0,36.20632515553409
272.0,36.25319909008937
273.0,36.300434695521076
274.0,36.34802898459628
275.0,36.395980398487836
276.0,36.44428624856009
277.0,36.49294382625303
278.0,36.54195110192383
279.0,36.591305655450796
280.0,36.641004694227085
281.0,36.69104608790461
282.0,36.7414273293147
283.0,36.79214521926289
284.0,36.84319787622255
285.0,36.89458271595878
286.0,36.94629680752416
287.0,36.998337530012094
288.0,37.05070224093454
289.0,37.10338859135357
290.0,37.15639357856685
291.0,37.209714501448644
292.0,37.263348946516864
293.0,37.31729386728327
294.0,37.371546812172014
295.0,37.42610471004579
296.0,37.480965074999965
297.0,37.53612510584885
298.0,37.59158170095921
299.0,37.6473323297442
300.0,37.703374157342466
301.0,37.759704339342576
302.0,37.81632002257761
303.0,37.87321862109384
304.0,37.930396713605134
305.0,37.98785224327609
306.0,38.04558177935817
307.0,38.1035824364658
308.0,38.16185185028884
309.0,38.22038685274942
310.0,38.27918454059355
311.0,38.338242263981364
312.0,38.39755685585497
313.0,38.457125659490885
314.0,38.51694576019347
315.0,38.57701449018196
316.0,38.63732868555685
317.0,38.69788543500253
318.0,38.75868230907889
319.0,38.819716150964986
320.0,38.880984051474954
321.0,38.94248333889281
322.0,39.0042111063103
323.0,39.06616422252212
324.0,39.12834047957139
325.0,39.19073652449944
326.0,39.25334969721597
327.0,39.31617733686595
328.0,39.37921634317875
329.0,39.44246406702771
330.0,39.50591764426384
331.0,39.56957443370887
332.0,39.633431583890186
333.0,39.69748625306383
334.0,39.761735818369004
335.0,39.82617724629284
336.0,39.89080813716415
337.0,39.95562547782194
338.0,40.020626879549084
339.0,40.085809351079746
340.0,40.15117011874416
341.0,40.216706815887584
342.0,40.28241648901061
343.0,40.34829659236791
344.0,40.41434439486126
345.0,40.480557561517045
346.0,40.54693300064481
347.0,40.61346839969016
348.0,40.68016107533347
349.0,40.74700835904508
350.0,40.81400796553844
351.0,40.881156882717875
352.0,40.94845303198095
353.0,41.01589361386547
354.0,41.08347602888256
355.0,41.15119804877875
356.0,41.21905692229829
357.0,41.287050445055286
358.0,41.35517589756491
359.0,41.42343110027619
360.0,41.491813366144164
361.0,41.560320541343465
362.0,41.62894997187144
363.0,41.697699362094085
364.0,41.766566429353844
365.0,41.83554890422177
366.0,41.904644200312646
367.0,41.973850245609356
368.0,42.043164651393
369.0,42.112585046828606
370.0,42.182109240280425
371.0,42.25173505429812
372.0,42.32146016633808
373.0,42.39128243055191
374.0,42.461199715708936
375.0,42.53120959164126
376.0,42.601310117866234
377.0,42.6714990550867
378.0,42.74177449114974
379.0,42.81213391137787
380.0,42.88257559000395
381.0,42.95309720195198
382.0,43.02369689770528
383.0,43.09437253891153
384.0,43.16512200559143
385.0,43.23594349476717
386.0,43.306834919044476
387.0,43.37779420935648
388.0,43.44881960976238
389.0,43.51990908395318
390.0,43.59106061385847
391.0,43.66227249091079
392.0,43.73354272987177
393.0,43.80486936360478
394.0,43.8762507311078
395.0,43.947685041630564
396.0,44.01917023422739
397.0,44.09070469556174
398.0,44.162286541995826
399.0,44.2339140493101
400.0,44.30558565042909
401.0,44.37729936989258
402.0,44.44905353232493
403.0,44.52084647813356
404.0,44.59267670322426
405.0,44.66454229975838
406.0,44.73644165650547
407.0,44.808373316590334
408.0,44.88033556074025
409.0,44.95232682465392
410.0,45.02434542179312
411.0,45.09638995732463
412.0,45.16845877624118
413.0,45.24055037701597
414.0,45.31266341027491
415.0,45.38479613128061
416.0,45.456947085032155
417.0,45.52911496784543
418.0,45.60129835435605
419.0,45.67349556255181
420.0,45.745705469486225
421.0,45.81792655918356
422.0,45.89015733105778
423.0,45.96239657036752
424.0,46.03464294132307
425.0,46.10689498759331
426.0,46.17915153776703
427.0,46.25141102958419
428.0,46.323672455261544
429.0,46.39593441615066
430.0,46.46819579758548
431.0,46.54045509438288
432.0,46.61271121984885
433.0,46.68496296624697
434.0,46.75720913957561
435.0,46.829448424652774
436.0,46.90167992426081
437.0,46.97390221532892
438.0,47.0461141576614
439.0,47.11831489421992
440.0,47.19050304133941
441.0,47.262677633227256
442.0,47.334837446843785
443.0,47.40698167753535
444.0,47.47910885698769
445.0,47.551218341409836
446.0,47.623308822513984
447.0,47.69537941076382
448.0,47.76742909343362
449.0,47.83945686991888
450.0,47.911461751622184
451.0,47.98344276183364
452.0,48.05539893561115
453.0,48.12732931966218
454.0,48.199232972221196
455.0,48.27110896292983
456.0,48.34295651010938
457.0,48.4147747065017
458.0,48.48656251809541
459.0,48.55831919705062
460.0,48.63004373065631
461.0,48.701735531598764
462.0,48.77339360870335
463.0,48.84501711932401
464.0,48.916605231147656
465.0,48.98815726168645
466.0,49.05967239975937
467.0,49.13114970398165
468.0,49.20258866311711
469.0,49.27398835566975
470.0,49.345348009651275
471.0,49.41666700397207
472.0,49.48794458643631
473.0,49.559180014106104
474.0,49.630372553170986
475.0,49.701521621562065
476.0,49.772626361282896
477.0,49.843686208589595
478.0,49.91470060977767
479.0,49.985668732783665
480.0,50.056590041551075
481.0,50.12746371996532
482.0,50.19828939440718
483.0,50.269066410993375
484.0,50.339793977711835
485.0,50.410471748134
486.0,50.4810989461118
487.0,50.55167509596602
488.0,50.62219943573892
489.0,50.69267180144705
490.0,50.76309129880044
491.0,50.83345748399934
492.0,50.90376977253857
493.0,50.97402773651785
494.0,51.04423095648223
495.0,51.1143787200377
496.0,51.18447047061089
497.0,51.254505961055244
498.0,51.32448465007663
499.0,51.394406002526196
500.0,51.46426948927915
501.0,51.53407474046552
502.0,51.60382139384943
503.0,51.673508786146705
504.0,51.743136567289326
505.0,51.81270439452892
506.0,51.88221193235731
507.0,51.95165838379974
508.0,52.02104373655517
509.0,52.090367360432694
510.0,52.15962910116779
511.0,52.22882818056202
512.0,52.2979646143818
513.0,52.367037951442335
514.0,52.43604758535122
515.0,52.504993392493404
516.0,52.57387493617959
517.0,52.64269178382801
518.0,52.711443830208786
519.0,52.78013065368617
520.0,52.84875167371398
521.0,52.917306964238364
522.0,52.98579595402397
523.0,53.05421856600486
524.0,53.12257423629667
525.0,53.19086273279697
526.0,53.259083828643526
527.0,53.327237302125525
528.0,53.39532276970121
529.0,53.463339850667595
530.0,53.53128850296386
531.0,53.59916852293621
532.0,53.6669793735648
533.0,53.734720857240774
534.0,53.80239295092339
535.0,53.869995126211265
536.0,53.93752736820002
537.0,54.00498949662975
538.0,54.072380990836066
539.0,54.13970184822287
540.0,54.206951898936154
541.0,54.274130629183205
542.0,54.34123822225776
543.0,54.40827434453442
544.0,54.4752384882314
545.0,54.542131024988976
546.0,54.608951276685104
547.0,54.67569927055722
548.0,54.74237486150433
549.0,54.80897790751993
550.0,54.87550791198855
551.0,54.94196509424715
552.0,55.008349141129884
553.0,55.07465992046919
554.0,55.14089730275073
555.0,55.20706097946483
556.0,55.27315100658869
557.0,55.3391672620308
558.0,55.405109259600806
559.0,55.47097724593216
560.0,55.53677092128045
561.0,55.602490170606146
562.0,55.6681348808238
563.0,55.73370512667404
564.0,55.79920042739758
565.0,55.86462086068853
566.0,55.92996632047006
567.0,55.995236514067
568.0,56.06043171413572
569.0,56.12555163138728
570.0,56.19059616543069
571.0,56.25556502676501
572.0,56.32045849744408
573.0,56.385276099304804
574.0,56.45001811860607
575.0,56.51468426938344
576.0,56.57927445734927
577.0,56.64378878253497
578.0,56.70822695957219
579.0,56.77258889618264
580.0,56.836874890948465
581.0,56.90108446432575
582.0,56.96521772159299
583.0,57.029274573666086
584.0,57.09325493167758
585.0,57.15715890474124
586.0,57.22098640577862
587.0,57.28473714879513
588.0,57.34841144389216
589.0,57.41200880540531
590.0,57.47552954516803
591.0,57.5389735769005
592.0,57.602340813947976
593.0,57.665631169221584
594.0,57.72884475768838
595.0,57.79198128963499
596.0,57.85504087984354
597.0,57.91802364445067
598.0,57.9809292915955
599.0,58.043758141951486
600.0,58.106509696744226
601.0,58.169184482957974
602.0,58.23178199926964
603.0,58.29430256789638
604.0,58.35674589088225
605.0,58.419112291544494
606.0,58.48140146988099
607.0,58.543613540866176
608.0,58.60574862002808
609.0,58.667806403070514
610.0,58.729787214116186
611.0,58.79169074617943
612.0,58.85351711190141
613.0,58.91526663627154
614.0,58.976938795928575
615.0,59.03853391414907
616.0,59.10005188901148
617.0,59.161492830667115
618.0,59.22285663462915
619.0,59.28414340931734
620.0,59.345353262907096
621.0,59.406485871379175
622.0,59.46754155579136
623.0,59.52851998802859
624.0,59.58942170509705
625.0,59.65024637594924
626.0,59.71099410172005
627.0,59.77166476416039
628.0,59.83225868076832
629.0,59.89277551118704
630.0,59.95321579085942
631.0,60.01357895529544
632.0,60.07386553845842
633.0,60.1340751911892
634.0,60.19420822523321
635.0,60.25426450834139
636.0,60.31424412800837
637.0,60.374146947280565
638.0,60.433973496917105
639.0,60.49372318960876
640.0,60.55339655367516
641.0,60.61299321987383
642.0,60.67251348985289
643.0,60.73195743963451
644.0,60.79132491742325
645.0,60.85061622110899
646.0,60.9098309675928
647.0,60.9689696780962
648.0,61.02803219191223
649.0,61.087018572920755
650.0,61.14592865444848
651.0,61.20476272409931
652.0,61.26352083961336
653.0,61.322203056577905
654.0,61.380809428368295
655.0,61.43933977554478
656.0,61.497794376694344
657.0,61.556173046956246
658.0,61.61447629263249
659.0,61.672703692308374
660.0,61.73085551639761
661.0,61.78893180143909
662.0,61.846932581394555
663.0,61.90485788756797
664.0,61.962707982509315
665.0,62.020482658897365
666.0,62.07818193983786
667.0,62.13580608061953
668.0,62.193355335083865
669.0,62.25082924842859
670.0,62.308228068245484
671.0,62.36555204054716
672.0,62.422801172907384
673.0,62.47997546981189
674.0,62.53707469515773
675.0,62.59409955940974
676.0,62.65104958330515
677.0,62.70792499697036
678.0,62.76472602852438
679.0,62.82145242588109
680.0,62.87810465050572
681.0,62.93468244381778
682.0,62.991185782507344
683.0,63.04761512050651
684.0,63.10397018869483
685.0,63.16025143603427
686.0,63.21645858650106
687.0,63.27259160074081
688.0,63.32865091948578
689.0,63.384636497749696
690.0,63.440548286786935
691.0,63.49638647677348
692.0,63.552151255216245
693.0,63.60784232020832
694.0,63.66345985199369
695.0,63.71900427193145
696.0,63.77447526706581
697.0,63.82987300821091
698.0,63.8851976632247
699.0,63.94044915195292
700.0,63.99562763535576
701.0,64.05073327132948
702.0,64.10576596881918
703.0,64.16072612462001
704.0,64.21561339443853
705.0,64.27042792174736
706.0,64.32516984673786
707.0,64.3798395532775
708.0,64.43443668092074
709.0,64.48896160646424
710.0,64.54341420859707
711.0,64.59779436155362
712.0,64.65210267978689
713.0,64.70633903060111
714.0,64.76050327670515
715.0,64.81459552515167
716.0,64.86861612841673
717.0,64.92256518675133
718.0,64.97644229740422
719.0,65.03024805124896
720.0,65.08398203699176
721.0,65.1376448385557
722.0,65.19123603596265
723.0,65.24475620603177
724.0,65.29820517073178
725.0,65.35158299821359
726.0,65.40488975252126
727.0,65.45812549357541
728.0,65.51129052871124
729.0,65.56438465831752
730.0,65.61740792968946
731.0,65.67036089022454
732.0,65.72324307515746
733.0,65.77605477143872
734.0,65.82879600973683
735.0,65.88146706914328
736.0,65.93406771900057
737.0,65.98659822987712
738.0,66.03905886855854
739.0,66.0914491373967
740.0,66.14376980126394
741.0,66.1960203532704
742.0,66.24820129655471
743.0,66.30031363904203
744.0,66.35235457257305
745.0,66.40432662020685
746.0,66.4562284880238
747.0,66.508061421316
748.0,66.55982666334175
749.0,66.6115203564545
750.0,66.66314628235045
751.0,66.71470312179628
752.0,66.76618954808595
753.0,66.81760933609678
754.0,66.86895859615926
755.0,66.92023854017688
756.0,66.97145037744288
757.0,67.02259531464323
758.0,67.07366943521274
759.0,67.12467649485707
760.0,67.17561512608333
761.0,67.22648395420455
762.0,67.27728672608164
763.0,67.32802205892189
764.0,67.37868599661013
765.0,67.4292848408118
766.0,67.47981462517701
767.0,67.53027651057629
768.0,67.5806716544563
769.0,67.6309960697472
770.0,67.68125604450812
771.0,67.73144758124477
772.0,67.78157181819589
773.0,67.83162988982161
774.0,67.88161777833938
775.0,67.931541756127
776.0,67.9813952192801
777.0,68.03118443293485
778.0,68.08090535618518
779.0,68.13055909374643
780.0,68.18014932407654
781.0,68.229669410093
782.0,68.27912301947858
783.0,68.32851123844678
784.0,68.37783256884525
785.0,68.42708808648025
786.0,68.47627628210545
787.0,68.5253982211556
788.0,68.57445496453934
789.0,68.62344498673693
790.0,68.67236933813088
791.0,68.72122648212304
792.0,68.7700174586267
793.0,68.81874588534758
794.0,68.86740504430999
795.0,68.91600112546213
796.0,68.96452998221301
797.0,69.01299521171414
798.0,69.06139265597874
799.0,69.10972590170277
800.0,69.15799594717477
801.0,69.20619861761968
802.0,69.25433490028313
803.0,69.30240836078956
804.0,69.3504173918053
805.0,69.39836038047004
806.0,69.44623829239897
807.0,69.49405208757231
808.0,69.54180013685782
809.0,69.5894859726968
810.0,69.63710537159534
811.0,69.68466185472259
812.0,69.7321511881613
813.0,69.77957946435012
814.0,69.8269424385803
815.0,69.87424102626943
816.0,69.92147613700577
817.0,69.96864609286443
818.0,70.01575437350287
819.0,70.06279670862392
820.0,70.10977656615646
821.0,70.15669224610595
822.0,70.20354462366775
823.0,70.2503345678043
824.0,70.29706036232214
825.0,70.34372286493327
826.0,70.39032292709729
827.0,70.43685881648517
828.0,70.4833313732438
829.0,70.52974143121627
830.0,70.57608724198792
831.0,70.6223722033163
832.0,70.66859455486662
833.0,70.71475253218505
834.0,70.76084951338363
835.0,70.80688372204797
836.0,70.85285594968862
837.0,70.89876440993113
838.0,70.94460988304182
839.0,70.99039571232612
840.0,71.03611752414831
841.0,71.08177864903465
842.0,71.12737727250669
843.0,71.17291414307884
844.0,71.21838743650913
845.0,71.26380045496629
846.0,71.3091539260288
847.0,71.35444344394551
848.0,71.3996722897476
849.0,71.44483861122292
850.0,71.48994311307939
851.0,71.5349890524379
852.0,71.57997199982762
853.0,71.62489264159274
854.0,71.66975421296605
855.0,71.71455482734666
856.0,71.75929514913595
857.0,71.80397328224126
858.0,71.84859243164885
859.0,71.89314813769418
860.0,71.9376461416539
861.0,71.9820819732746
862.0,72.02645880690267
863.0,72.07077471175421
864.0,72.11503029948248
865.0,72.15922617410817
866.0,72.2033603893444
867.0,72.2474360791868
868.0,72.29145128453003
869.0,72.33540658257836
870.0,72.37930254271195
871.0,72.42313972669164
872.0,72.46691615321653
873.0,72.51063237254074
874.0,72.55429145912873
875.0,72.5978888812657
876.0,72.641427699268
877.0,72.68490843146412
878.0,72.72832906183012
879.0,72.77169009702293
880.0,72.81499203596535
881.0,72.85823536947593
882.0,72.90142058025587
883.0,72.94454814290076
884.0,72.98761348820187
885.0,73.03062211628288
886.0,73.07357447737618
887.0,73.11646598683419
888.0,73.15929708780729
889.0,73.20207323535462
890.0,73.2447898296226
891.0,73.28744728909028
892.0,73.33004852918006
893.0,73.37259144335236
894.0,73.41507392327811
895.0,73.45750135968528
896.0,73.4998691275445
897.0,73.54218009733894
898.0,73.58443213410516
899.0,73.62662808843716
900.0,73.66876581193013
901.0,73.71084564523385
902.0,73.7528679200318
903.0,73.79483296006366
904.0,73.83674108051625
905.0,73.8785925882247
906.0,73.92038530094543
907.0,73.96212199306075
908.0,74.00380046951356
909.0,74.045421009251
910.0,74.08698635621683
911.0,74.12849429605421
912.0,74.16994508284414
913.0,74.21133896265607
914.0,74.2526786390807
915.0,74.29395694474024
916.0,74.3351814983273
917.0,74.37635004763136
918.0,74.41746034028013
919.0,74.45851503569537
920.0,74.49951186964813
921.0,74.54045348185025
922.0,74.58134004629129
923.0,74.62216928160264
924.0,74.66294135263169
925.0,74.70365641657307
926.0,74.74431706504994
927.0,74.7849209950374
928.0,74.82547077920263
929.0,74.86596166936515
930.0,74.90639865933102
931.0,74.94677942630115
932.0,74.98710407825477
933.0,75.02737271648091
934.0,75.06758786043679
935.0,75.1077447477692
936.0,75.1478458878355
937.0,75.18789377536267
938.0,75.22788605925037
939.0,75.26782039159563
940.0,75.30770166227735
941.0,75.34752751079711
942.0,75.38729798821956
943.0,75.42701314049464
944.0,75.46667541159088
945.0,75.50628003309392
946.0,75.54583184150806
947.0,75.58532846512367
948.0,75.62476993227645
949.0,75.6641562680173
950.0,75.70348988330457
951.0,75.74276840639706
952.0,75.78199185622539
953.0,75.8211626324282
954.0,75.86027836618457
955.0,75.89934145110296
956.0,75.93835189732127
957.0,75.97730734338303
958.0,76.016210177841
959.0,76.05505804701433
960.0,76.0938557025966
961.0,76.13260079327367
962.0,76.17129098124414
963.0,76.20993101359431
964.0,76.24851620350383
965.0,76.2870512982851
966.0,76.32553633149445
967.0,76.36396664922225
968.0,76.40234934840399
969.0,76.44067979288936
970.0,76.47895805524581
971.0,76.51718889205799
972.0,76.55536771147206
973.0,76.59349928251748
974.0,76.63158137700684
975.0,76.66961411789451
976.0,76.70759764246073
977.0,76.74553442494503
978.0,76.78342462682969
979.0,76.82126611100387
980.0,76.85906371058459
981.0,76.89681301313134
982.0,76.93451888308545
983.0,76.97217926800536
984.0,77.00979675683462
985.0,77.04737165207203
986.0,77.08490198420972
987.0,77.12239041421162
988.0,77.1598396217821
989.0,77.19724772600924
990.0,77.23461517725404
991.0,77.27194474466036
992.0,77.30923694130236
993.0,77.3464923171677
994.0,77.38371146163111
995.0,77.42089728085341
996.0,77.45805044114016
997.0,77.49516938539166
998.0,77.53225714679705
999.0,77.5693167979446
1000.0,77.60203451356365
1001.0,77.63872044385137
1002.0,77.6753562668411
1003.0,77.71193929187655
1004.0,77.74847358284234
1005.0,77.7849586816032
1006.0,77.82139187988268
1007.0,77.857774957687
1008.0,77.8941096781585
1009.0,77.93039331567921
1010.0,77.9666276163614
1011.0,78.00281207912299
1012.0,78.03894619723455
1013.0,78.07503168310657
1014.0,78.11106578847303
1015.0,78.1470524281315
1016.0,78.18298883994423
1017.0,78.21887448105481
1018.0,78.25471322444633
1019.0,78.29050008385212
1020.0,78.32623891015288
1021.0,78.3619291219553
1022.0,78.39756793331722
1023.0,78.43315915363733
1024.0,78.46870217717763
1025.0,78.50419639300624
1026.0,78.53963899725771
1027.0,78.57503593210772
1028.0,78.61038218999018
