T(K),Cp_Thiswork
200.0,29.106944197403323
201.0,29.107025239648664
202.0,29.107106847349872
203.0,29.107189130666704
204.0,29.107272231113065
205.0,29.10735624958611
206.0,29.10744131824776
207.0,29.10752755956901
208.0,29.10761509665174
209.0,29.107704043543706
210.0,29.107794544289305
211.0,29.10788670477117
212.0,29.107980660778523
213.0,29.108076539212313
214.0,29.108174458537672
215.0,29.108274566159736
216.0,29.108376973169243
217.0,29.10848181950456
218.0,29.108589236801652
219.0,29.108699348804215
220.0,29.108812307200616
221.0,29.108928229034674
222.0,29.109047259199073
223.0,29.109169534794084
224.0,29.10929519408255
225.0,29.10942436798863
226.0,29.109557214260967
227.0,29.10969385777907
228.0,29.109834441815686
229.0,29.109979127416718
230.0,29.110128043554962
231.0,29.110281353545787
232.0,29.110439189128883
233.0,29.110601699850136
234.0,29.110769052495442
235.0,29.110941382972083
236.0,29.111118852530993
237.0,29.11130161566512
238.0,29.111489828146592
239.0,29.11168363929329
240.0,29.11188321524815
241.0,29.112088715590062
242.0,29.112300301154004
243.0,29.112518134021695
244.0,29.11274237000596
245.0,29.1129731812362
246.0,29.113210733460882
247.0,29.113455186239882
248.0,29.113706715156738
249.0,29.113965489493683
250.0,29.114231679676514
251.0,29.1145054500153
252.0,29.11478698767486
253.0,29.115076444766103
254.0,29.115374017695206
255.0,29.115679867962918
256.0,29.115994179568467
257.0,29.116317130318393
258.0,29.116648898973377
259.0,29.116989658214216
260.0,29.117339588696176
261.0,29.117698885851983
262.0,29.11806771802033
263.0,29.118446275264933
264.0,29.118834741438718
265.0,29.119233294253508
266.0,29.119642125916474
267.0,29.12006141554135
268.0,29.120491363426666
269.0,29.120932136266546
270.0,29.12138394229943
271.0,29.121846956171268
272.0,29.12232137345018
273.0,29.122807376560928
274.0,29.123305161898912
275.0,29.123814919435404
276.0,29.12433683271839
277.0,29.124871099098854
278.0,29.125417909411205
279.0,29.12597744795611
280.0,29.126549905946433
281.0,29.127135481454008
282.0,29.127734365890625
283.0,29.128346743967008
284.0,29.12897281387444
285.0,29.129612760271456
286.0,29.130266781223604
287.0,29.13093506792713
288.0,29.13161780463939
289.0,29.132315182151153
290.0,29.133027397783074
291.0,29.133754634997075
292.0,29.13449709049434
293.0,29.135254953816847
294.0,29.136028407244396
295.0,29.136817639386962
296.0,29.137622845214985
297.0,29.13844420543536
298.0,29.139281907000083
299.0,29.140136143154276
300.0,29.141007099599523
301.0,29.141894947380294
302.0,29.142799891583223
303.0,29.143722094659296
304.0,29.14466175315842
305.0,29.145619041740744
306.0,29.146594148246045
307.0,29.14758724541487
308.0,29.148598512039836
309.0,29.14962812588142
310.0,29.150676270853353
311.0,29.15174311538398
312.0,29.152828833917926
313.0,29.153933607046305
314.0,29.155057592205125
315.0,29.156200974885117
316.0,29.157363924718645
317.0,29.15854659507001
318.0,29.159749167707027
319.0,29.16097179309839
320.0,29.16221465037301
321.0,29.163477894613564
322.0,29.164761686941517
323.0,29.16606619470631
324.0,29.16739156054757
325.0,29.168737948657995
326.0,29.170105521822514
327.0,29.17149441759891
328.0,29.172904803427095
329.0,29.174336821365973
330.0,29.175790611560032
331.0,29.17726633663961
332.0,29.17876412511166
333.0,29.180284136285607
334.0,29.18182649486002
335.0,29.183391348364218
336.0,29.184978842709814
337.0,29.186589096698775
338.0,29.188222252420164
339.0,29.189878441677692
340.0,29.191557785662855
341.0,29.193260429596066
342.0,29.194986482003774
343.0,29.196736075534105
344.0,29.198509332152753
345.0,29.20030636279464
346.0,29.202127303332816
347.0,29.203972251538296
348.0,29.205841321005384
349.0,29.20773464184157
350.0,29.209652305169733
351.0,29.211594418314988
352.0,29.213561096006366
353.0,29.215552441557293
354.0,29.217568546481047
355.0,29.2196095193397
356.0,29.221675457030614
357.0,29.22376643448313
358.0,29.225882573758902
359.0,29.22802393530541
360.0,29.230190637320458
361.0,29.232382735406993
362.0,29.23460033357173
363.0,29.23684351349757
364.0,29.23911233370166
365.0,29.241406892114448
366.0,29.24372726383649
367.0,29.24607350027329
368.0,29.248445693276015
369.0,29.25084390042209
370.0,29.253268198767397
371.0,29.25571863020236
372.0,29.25819527849402
373.0,29.260698180771147
374.0,29.263227416777134
375.0,29.265783030365704
376.0,29.268365074404365
377.0,29.27097359957692
378.0,29.273608654387623
379.0,29.276270285166834
380.0,29.27895853607602
381.0,29.281673449114564
382.0,29.284415064125398
383.0,29.287183418803096
384.0,29.28997853633378
385.0,29.292800474767926
386.0,29.295649240563478
387.0,29.298524875262068
388.0,29.301427405931456
389.0,29.304356844660298
390.0,29.307313227001735
391.0,29.31029657375836
392.0,29.313306903665598
393.0,29.31634422009708
394.0,29.319408537364957
395.0,29.322499894787462
396.0,29.325618262377645
397.0,29.328763689268513
398.0,29.331936140812495
399.0,29.33513564885626
400.0,29.338362216017096
401.0,29.341615828772277
402.0,29.344896485503487
403.0,29.348204197068686
404.0,29.35153894381901
405.0,29.35490071838597
406.0,29.358289526262876
407.0,29.361705326935947
408.0,29.365148137033266
409.0,29.36861792697765
410.0,29.372114695326612
411.0,29.375638393308222
412.0,29.379189015758044
413.0,29.382766540637384
414.0,29.38637095982776
415.0,29.390002216536743
416.0,29.393660299052137
417.0,29.39734517838518
418.0,29.401056823851633
419.0,29.404795203088042
420.0,29.408560282069843
421.0,29.412352008605477
422.0,29.41617037832014
423.0,29.420015319141243
424.0,29.42388679020211
425.0,29.427784766069472
426.0,29.431709203108873
427.0,29.435660056146094
428.0,29.43963726110387
429.0,29.443640769408617
430.0,29.44767054862671
431.0,29.451726547598568
432.0,29.45580869583425
433.0,29.45991693891334
434.0,29.464051239126583
435.0,29.46821152135771
436.0,29.472397726987523
437.0,29.476609814538953
438.0,29.480847704427724
439.0,29.485111315234715
440.0,29.489400639272397
441.0,29.49371555499631
442.0,29.498056014628702
443.0,29.502421969643855
444.0,29.50681331259232
445.0,29.511230011883647
446.0,29.515671957129392
447.0,29.520139095074466
448.0,29.524631351896694
449.0,29.529148652619504
450.0,29.533690921130944
451.0,29.538258080200308
452.0,29.542850031067182
453.0,29.547466714483512
454.0,29.552108049964456
455.0,29.55677393515715
456.0,29.561464308049068
457.0,29.566179085051893
458.0,29.57091816037164
459.0,29.575681469381585
460.0,29.580468904074344
461.0,29.585280376567145
462.0,29.590115819768158
463.0,29.594975122472576
464.0,29.599858216027194
465.0,29.604764965057402
466.0,29.60969534351632
467.0,29.614649191793664
468.0,29.619626437910128
469.0,29.624627009583428
470.0,29.629650765933377
471.0,29.634697655844377
472.0,29.639767559371872
473.0,29.64486037844784
474.0,29.649975990963153
475.0,29.655114343820305
476.0,29.660275313587015
477.0,29.665458775604662
478.0,29.67066465163049
479.0,29.675892839323605
480.0,29.68114321160779
481.0,29.686415712850604
482.0,29.69171019049137
483.0,29.69702656370254
484.0,29.70236470238163
485.0,29.70772450004043
486.0,29.71310589932045
487.0,29.718508718419
488.0,29.7239329241046
489.0,29.729378332709558
490.0,29.734844885344703
491.0,29.740332447144464
492.0,29.745840933486093
493.0,29.75137018250239
494.0,29.75692016025866
495.0,29.762490677811144
496.0,29.768081648801573
497.0,29.773692960678744
498.0,29.779324526870166
499.0,29.784976181319735
500.0,29.79064786317433
501.0,29.796339405083646
502.0,29.802050719034916
503.0,29.807781690124934
504.0,29.813532203101964
505.0,29.819302142373452
506.0,29.825091392021207
507.0,29.830899808268185
508.0,29.836727301867505
509.0,29.842573728192836
510.0,29.848438997676844
511.0,29.85432299293779
512.0,29.860225568161795
513.0,29.866146633380154
514.0,29.872086042046035
515.0,29.87804370397481
516.0,29.884019471929207
517.0,29.890013226760423
518.0,29.89602487804369
519.0,29.902054248545873
520.0,29.908101276523837
521.0,29.914165842483662
522.0,29.92024776796607
523.0,29.926346961977153
524.0,29.932463333876264
525.0,29.938596733846467
526.0,29.94474701147041
527.0,29.950914105782893
528.0,29.957097836160635
529.0,29.963298111690797
530.0,29.969514811495372
531.0,29.975747814632367
532.0,29.981997000104734
533.0,29.988262216140228
534.0,29.99454337215036
535.0,30.000840347030156
536.0,30.007152988570915
537.0,30.01348120648735
538.0,30.019824879646244
539.0,30.02618385548901
540.0,30.03255801255952
541.0,30.03894726109477
542.0,30.0453514482683
543.0,30.051770452734395
544.0,30.058204185209057
545.0,30.064652492680782
546.0,30.071115253987312
547.0,30.077592380397267
548.0,30.084083686327112
549.0,30.090589115690065
550.0,30.09710848264951
551.0,30.103641731783906
552.0,30.110188709948012
553.0,30.116749296703006
554.0,30.12332333860801
555.0,30.129910781655813
556.0,30.136511439458634
557.0,30.14312522529241
558.0,30.149752019467527
559.0,30.156391702463875
560.0,30.163044121157746
561.0,30.169709189966113
562.0,30.176386755931482
563.0,30.183076734084345
564.0,30.18977900587426
565.0,30.19649341864985
566.0,30.203219888403076
567.0,30.209958262722846
568.0,30.2167084236456
569.0,30.22347028818557
570.0,30.230243704345426
571.0,30.23702855490673
572.0,30.243824757960624
573.0,30.25063216198241
574.0,30.25745065055733
575.0,30.264280107553788
576.0,30.271120417125374
577.0,30.27797146371644
578.0,30.284833132069338
579.0,30.29170530722905
580.0,30.298587874549952
581.0,30.305480719696526
582.0,30.312383728656574
583.0,30.319296751601232
584.0,30.32621974734626
585.0,30.33315253049452
586.0,30.34009502449411
587.0,30.347047080480856
588.0,30.354008622788125
589.0,30.36097953977454
590.0,30.367959683348367
591.0,30.37494897920474
592.0,30.381947279794097
593.0,30.388954511730233
594.0,30.395970528030755
595.0,30.402995256242633
596.0,30.41002854996044
597.0,30.417070300243644
598.0,30.42412039854183
599.0,30.431178774316347
600.0,30.438245282368865
601.0,30.44531981533938
602.0,30.452402266274362
603.0,30.459492528623827
604.0,30.466590496249943
605.0,30.473696063427624
606.0,30.48080916306799
607.0,30.48792961391524
608.0,30.495057349635722
609.0,30.50219222769909
610.0,30.509334221351054
611.0,30.516483188996745
612.0,30.523638989145176
613.0,30.53080155801032
614.0,30.537970793687983
615.0,30.545146555740047
616.0,30.552328781932324
617.0,30.55951733253913
618.0,30.56671214637239
619.0,30.573913123704127
620.0,30.581120125902352
621.0,30.588333053891375
622.0,30.595551848565865
623.0,30.602776372385264
624.0,30.61000652761971
625.0,30.617242256719805
626.0,30.624483423266163
627.0,30.63172993087056
628.0,30.63898172355284
629.0,30.646238625984505
630.0,30.653500623109476
631.0,30.66076758038607
632.0,30.66803936342629
633.0,30.67531595895614
634.0,30.682597233569574
635.0,30.689883094470026
636.0,30.697173408800964
637.0,30.704468165639128
638.0,30.711767192438856
639.0,30.71907043871913
640.0,30.726377813941387
641.0,30.733689228002575
642.0,30.74100455032973
643.0,30.748323732508407
644.0,30.755646644728213
645.0,30.762973239591386
646.0,30.770303429222388
647.0,30.777637084955725
648.0,30.784974160917013
649.0,30.792314529191557
650.0,30.79965814491083
651.0,30.807004880922896
652.0,30.814354651812476
653.0,30.82170741420139
654.0,30.829063042076417
655.0,30.836421451327524
656.0,30.84378260006117
657.0,30.851146321550143
658.0,30.858512616594723
659.0,30.865881361045048
660.0,30.873252472956274
661.0,30.8806258708104
662.0,30.888001473520283
663.0,30.895379200412435
664.0,30.902758971245845
665.0,30.910140706202306
666.0,30.91752432588051
667.0,30.924909751301264
668.0,30.93229686148095
669.0,30.939685620593252
670.0,30.94707599342896
671.0,30.9544677751164
672.0,30.96186101630783
673.0,30.96925555532884
674.0,30.976651358666803
675.0,30.98404830789051
676.0,30.99144637040464
677.0,30.998845428500125
678.0,31.00624545048424
679.0,31.01364636230887
680.0,31.02104804735157
681.0,31.028450432231892
682.0,31.035853487049113
683.0,31.043257053145645
684.0,31.05066118768562
685.0,31.058065689561282
686.0,31.065470573758503
687.0,31.072875726151686
688.0,31.08028107616643
689.0,31.087686596983623
690.0,31.09509213214947
691.0,31.102497699031733
692.0,31.109903141807017
693.0,31.117308478795742
694.0,31.12471359835359
695.0,31.132118389090564
696.0,31.139522870720754
697.0,31.14692688902121
698.0,31.154330420946252
699.0,31.16173344397551
700.0,31.169135804857348
701.0,31.176537438037858
702.0,31.183938365994475
703.0,31.191338436447996
704.0,31.19873762890854
705.0,31.20613587948926
706.0,31.21353308074132
707.0,31.22092921345876
708.0,31.22832417091212
709.0,31.23571793473097
710.0,31.243110398933844
711.0,31.25050154598108
712.0,31.257891270618902
713.0,31.265279556166934
714.0,31.27266629809821
715.0,31.280051480568915
716.0,31.28743499980158
717.0,31.294816796548915
718.0,31.30219681195955
719.0,31.309575031893186
720.0,31.316951354046452
721.0,31.324325720768044
722.0,31.33169807481888
723.0,31.339068403716787
724.0,31.346436562287316
725.0,31.353802583268326
726.0,31.361166322180466
727.0,31.368527812665732
728.0,31.375886910971026
729.0,31.383243651612865
730.0,31.3905978915871
731.0,31.397949666290266
732.0,31.405298833451926
733.0,31.41264538479105
734.0,31.4199892679002
735.0,31.42733043079622
736.0,31.434668777280276
737.0,31.442004300758562
738.0,31.449336950470922
739.0,31.45666663140743
740.0,31.463993382918943
741.0,31.471317021473514
742.0,31.47863763195023
743.0,31.48595507625891
744.0,31.493269306066374
745.0,31.500580318190465
746.0,31.50788806512717
747.0,31.51519245507697
748.0,31.522493441343965
749.0,31.529791022431645
750.0,31.537085107728096
751.0,31.544375651763048
752.0,31.551662654310856
753.0,31.558946025962562
754.0,31.566225722468197
755.0,31.573501744860067
756.0,31.580774004910694
757.0,31.58804245962063
758.0,31.595307066409042
759.0,31.60256778307293
760.0,31.609824612664024
761.0,31.617077424151482
762.0,31.62432622133536
763.0,31.63157100850708
764.0,31.63881170060116
765.0,31.646048213019487
766.0,31.653280551166326
767.0,31.660508720860772
768.0,31.667732593807337
769.0,31.67495217659428
770.0,31.682167431356532
771.0,31.689378320613365
772.0,31.696584807259057
773.0,31.70378680971381
774.0,31.710984336462737
775.0,31.718177351519696
776.0,31.725365774411564
777.0,31.732549659531717
778.0,31.739728837488386
779.0,31.746903408207782
780.0,31.75407324783618
781.0,31.76123832249894
782.0,31.768398688339964
783.0,31.77555417771728
784.0,31.782704847413164
785.0,31.789850664904012
786.0,31.7969915532041
787.0,31.80412748046675
788.0,31.811258459895168
789.0,31.81838446022901
790.0,31.825505361036612
791.0,31.83262122117837
792.0,31.83973196555911
793.0,31.84683760890362
794.0,31.853938031984015
795.0,31.861033294759256
796.0,31.868123367984353
797.0,31.875208133373352
798.0,31.88228760697772
799.0,31.88936180501439
800.0,31.896430654691677
801.0,31.903494083488056
802.0,31.9105521530129
803.0,31.9176047912212
804.0,31.92465197094888
805.0,31.93169366524601
806.0,31.9387298473736
807.0,31.945760490853154
808.0,31.95278552487423
809.0,31.959805012412133
810.0,31.966818838574405
811.0,31.973827022178718
812.0,31.980829582200336
813.0,31.98782640449587
814.0,31.994817463944297
815.0,32.00180282450323
816.0,32.008782372622846
817.0,32.015756128131756
818.0,32.02272402230911
819.0,32.029686119597024
820.0,32.03664226300232
821.0,32.043592561547065
822.0,32.05053690296297
823.0,32.05747530786755
824.0,32.064407708646016
825.0,32.07133412629688
826.0,32.07825449344414
827.0,32.085168831351176
828.0,32.09207707300865
829.0,32.09897923985962
830.0,32.105875265302544
831.0,32.11276512701221
832.0,32.11964884674098
833.0,32.126526358322586
834.0,32.13339768388666
835.0,32.140262757568706
836.0,32.14712155776634
837.0,32.15397410684901
838.0,32.1608202956436
839.0,32.16766019078355
840.0,32.17449372728201
841.0,32.18132092801643
842.0,32.18814168470971
843.0,32.194956064273455
844.0,32.20176395882153
845.0,32.20856543550558
846.0,32.21536043057374
847.0,32.222148924162745
848.0,32.22893089643786
849.0,32.23570632790764
850.0,32.24247519926688
851.0,32.24923749131227
852.0,32.25599318508476
853.0,32.26274226186914
854.0,32.26948470314121
855.0,32.27622049055884
856.0,32.28294960599776
857.0,32.28967198837981
858.0,32.29638766339999
859.0,32.303096613671876
860.0,32.30979882210251
861.0,32.31649427180966
862.0,32.323182903130224
863.0,32.3298647427996
864.0,32.33653977488874
865.0,32.343207983648476
866.0,32.34986931056331
867.0,32.35652378360734
868.0,32.36317138782657
869.0,32.369812065851164
870.0,32.376445803656324
871.0,32.383072672909044
872.0,32.38969257454239
873.0,32.39630549534712
874.0,32.4029114653073
875.0,32.40951047185091
876.0,32.416102417545936
877.0,32.42268741849617
878.0,32.4292653780829
879.0,32.43583628535728
880.0,32.44240012956044
881.0,32.4489569852262
882.0,32.45550671516279
883.0,32.46204939446419
884.0,32.46858497159975
885.0,32.47511343772431
886.0,32.48163482637861
887.0,32.48814908729841
888.0,32.4946562125348
889.0,32.501156194585654
890.0,32.50764906834627
891.0,32.51413478485988
892.0,32.52061333752173
893.0,32.52708472000611
894.0,32.53354896832058
895.0,32.540005992808965
896.0,32.54645587186831
897.0,32.552898558072336
898.0,32.55933400497752
899.0,32.565762290922805
900.0,32.572183369555475
901.0,32.57859723634486
902.0,32.58500388685157
903.0,32.591403275248126
904.0,32.59779548008076
905.0,32.60418045570699
906.0,32.61055819793737
907.0,32.61692870233247
908.0,32.62329192356383
909.0,32.62964789826559
910.0,32.63599666301682
911.0,32.64233813101922
912.0,32.648672338283646
913.0,32.65499923859981
914.0,32.66131890878505
915.0,32.66763126092182
916.0,32.67393632988234
917.0,32.680234109143015
918.0,32.686524591744224
919.0,32.692807729590335
920.0,32.699083555510086
921.0,32.705352020444806
922.0,32.71161319632806
923.0,32.71786699258659
924.0,32.72411339890943
925.0,32.730352444931974
926.0,32.736584118748354
927.0,32.74280836781264
928.0,32.74902521922873
929.0,32.755234659049535
930.0,32.7614365924384
931.0,32.76763112441834
932.0,32.77381815856551
933.0,32.77999767812141
934.0,32.7861697055235
935.0,32.79233418246999
936.0,32.7984911299506
937.0,32.80464048852607
938.0,32.81078227794275
939.0,32.81691643801173
940.0,32.82304294778152
941.0,32.829161825572996
942.0,32.835272971276424
943.0,32.841376481934205
944.0,32.84747221799064
945.0,32.85356023761443
946.0,32.859640480887464
947.0,32.865712967985225
948.0,32.871777601919554
949.0,32.87783444386312
950.0,32.883883439291765
951.0,32.88992457473259
952.0,32.895957878144316
953.0,32.901983263405256
954.0,32.908000803493124
955.0,32.91401045791789
956.0,32.92001223022688
957.0,32.92600612842941
958.0,32.93199216606649
959.0,32.93797036337039
960.0,32.94394074725135
961.0,32.94990339146404
962.0,32.95585826250999
963.0,32.96180549106873
964.0,32.9677450649569
965.0,32.973677098755424
966.0,32.97960168208668
967.0,32.985518957275175
968.0,32.99142896753194
969.0,32.99733188876745
970.0,33.003227876994586
971.0,33.00911710878061
972.0,33.01499978399496
973.0,33.02087608841624
974.0,33.02674634757471
975.0,33.03261076518064
976.0,33.03846968880568
977.0,33.044323462597106
978.0,33.05017246576749
979.0,33.05601707984517
980.0,33.061857840771225
981.0,33.06769518001893
982.0,33.073529689876494
983.0,33.07936194031236
984.0,33.08519263138774
985.0,33.091022486798806
986.0,33.0968522939443
987.0,33.10268287208224
988.0,33.108515188230825
989.0,33.11435021446716
990.0,33.12018911676595
991.0,33.126032967603614
992.0,33.13188315413258
993.0,33.13774098292534
994.0,33.14360794169964
995.0,33.14948567016107
996.0,33.155375894244244
997.0,33.161280433108985
998.0,33.16720131770609
999.0,33.173140653272824
1000.0,33.183877323676626
1001.0,33.18946839645051
1002.0,33.19505246811672
1003.0,33.20062961254563
1004.0,33.206199831116386
1005.0,33.211763089316634
1006.0,33.217319388820464
1007.0,33.22286876715694
1008.0,33.22841119015622
1009.0,33.233946659635585
1010.0,33.23947521306667
1011.0,33.24499681662035
1012.0,33.250511507728014
