T(K),Cp_Thiswork
200.0,34.01456341483048
201.0,34.00512752994692
202.0,33.99633552342334
203.0,33.98818163131869
204.0,33.98066018148624
205.0,33.97376552517992
206.0,33.96749197029926
207.0,33.96183398485111
208.0,33.95678592730572
209.0,33.95234224969113
210.0,33.94849749657028
211.0,33.94524610637602
212.0,33.94258270992752
213.0,33.940501800831406
214.0,33.93899806426295
215.0,33.93806608285175
216.0,33.9377005649863
217.0,33.93789624683496
218.0,33.93864782915909
219.0,33.93995010555755
220.0,33.94179786682345
221.0,33.94418596445777
222.0,33.94710930998514
223.0,33.95056278172942
224.0,33.95454131876363
225.0,33.95903988969443
226.0,33.96405355338233
227.0,33.96957730672162
228.0,33.975606267027416
229.0,33.9821354909822
230.0,33.98916018432959
231.0,33.99667549273108
232.0,34.00467665049216
233.0,34.01315889180904
234.0,34.022117480557476
235.0,34.031547738950586
236.0,34.0414450466424
237.0,34.05180472689032
238.0,34.062622217670025
239.0,34.073892957450035
240.0,34.08561244148545
241.0,34.097776165924216
242.0,34.11037965604383
243.0,34.123418520469215
244.0,34.136888341608724
245.0,34.15078478445856
246.0,34.16510346197236
247.0,34.17984012239193
248.0,34.19499051461479
249.0,34.2105503371063
250.0,34.226515447142575
251.0,34.242881651145986
252.0,34.25964480919836
253.0,34.2768007835625
254.0,34.294345514808946
255.0,34.312274970158775
256.0,34.33058511872715
257.0,34.349271932385165
258.0,34.368331508442125
259.0,34.387759872526395
260.0,34.40755312617134
261.0,34.42770742116076
262.0,34.44821891128679
263.0,34.46908377667095
264.0,34.49029822371679
265.0,34.511858485060735
266.0,34.53376088842904
267.0,34.55600167163615
268.0,34.57857719046185
269.0,34.60148380290072
270.0,34.62471789225535
271.0,34.648275889212606
272.0,34.67215420508599
273.0,34.69634932060062
274.0,34.72085771929963
275.0,34.745675931249906
276.0,34.77080053217692
277.0,34.796228058034934
278.0,34.82195513327656
279.0,34.847978364270816
280.0,34.87429444418294
281.0,34.900900027491794
282.0,34.92779183407402
283.0,34.954966586989194
284.0,34.98242105329999
285.0,35.01015202335827
286.0,35.0381562910144
287.0,35.06643071310441
288.0,35.094972130117824
289.0,35.1237774448291
290.0,35.15284356331488
291.0,35.18216741464707
292.0,35.211745950839884
293.0,35.24157618422901
294.0,35.271655111694585
295.0,35.301979771339184
296.0,35.33254722343625
297.0,35.36335451407536
298.0,35.39439880260183
299.0,35.425677179336034
300.0,35.45718682863524
301.0,35.488924885260616
302.0,35.52088859428767
303.0,35.553075134297444
304.0,35.58548179274379
305.0,35.61810580889475
306.0,35.65094449504783
307.0,35.68399516724663
308.0,35.717255129180735
309.0,35.750721772813534
310.0,35.78439247714068
311.0,35.81826464203837
312.0,35.8523356882084
313.0,35.88660305712196
314.0,35.92106424287577
315.0,35.955716727589866
316.0,35.99055802970972
317.0,36.02558565655326
318.0,36.06079719833444
319.0,36.09619021819332
320.0,36.131762330155695
321.0,36.16751112222033
322.0,36.20343427824229
323.0,36.239529425877166
324.0,36.27579425778369
325.0,36.31222648580448
326.0,36.34882384091452
327.0,36.38558404419395
328.0,36.42250487973758
329.0,36.45958410734865
330.0,36.49681957742977
331.0,36.53420907356677
332.0,36.57175045523287
333.0,36.60944160021395
334.0,36.647280363252165
335.0,36.68526468682663
336.0,36.723392462911576
337.0,36.761661656630274
338.0,36.80007021060075
339.0,36.83861611272917
340.0,36.87729738200122
341.0,36.91611201556812
342.0,36.955058055098284
343.0,36.99413357287076
344.0,37.03333661996249
345.0,37.07266530393892
346.0,37.112117749503895
347.0,37.151692073321044
348.0,37.19138640976257
349.0,37.23119896038094
350.0,37.271127881405704
351.0,37.311171395766216
352.0,37.35132770638418
353.0,37.39159506967515
354.0,37.43197172240211
355.0,37.47245595418135
356.0,37.51304604713154
357.0,37.55374031180382
358.0,37.59453707505389
359.0,37.63543467996797
360.0,37.67643147428086
361.0,37.71752584497017
362.0,37.75871618335632
363.0,37.8000008966834
364.0,37.84137841925222
365.0,37.882847167418646
366.0,37.92440562914233
367.0,37.96605226313838
368.0,38.0077855657868
369.0,38.049604048631494
370.0,38.09150621671269
371.0,38.133490622797815
372.0,38.17555582364777
373.0,38.21770036967265
374.0,38.259922868692016
375.0,38.30222190081072
376.0,38.34459610285974
377.0,38.38704408430067
378.0,38.429564500363256
379.0,38.47215602036911
380.0,38.51481730732802
381.0,38.55754704875875
382.0,38.600343956301685
383.0,38.64320675535469
384.0,38.68613416513039
385.0,38.72912493863112
386.0,38.772177842357706
387.0,38.81529164646305
388.0,38.85846515406281
389.0,38.90169715233198
390.0,38.94498646122868
391.0,38.988331923321326
392.0,39.03173236544814
393.0,39.0751866655322
394.0,39.1186936856919
395.0,39.16225230095077
396.0,39.205861427038386
397.0,39.249519964062685
398.0,39.29322684316226
399.0,39.33698098931167
400.0,39.38078135813923
401.0,39.424626917241504
402.0,39.46851662805604
403.0,39.51244949109315
404.0,39.55642449159066
405.0,39.60044065340634
406.0,39.644496985205485
407.0,39.68859253382618
408.0,39.732726339747146
409.0,39.77689746357323
410.0,39.82110498573685
411.0,39.86534796300566
412.0,39.90962551519149
413.0,39.95393672969454
414.0,39.998280722050595
415.0,40.04265663545091
416.0,40.08706358958103
417.0,40.131500740159794
418.0,40.175967244786804
419.0,40.220462279714766
420.0,40.26498501465912
421.0,40.30953465441658
422.0,40.35411038882418
423.0,40.39871143420262
424.0,40.44333701658202
425.0,40.48798635533217
426.0,40.53265871204139
427.0,40.57735332517125
428.0,40.62206945082567
429.0,40.666806378530765
430.0,40.711563374787524
431.0,40.756339739276484
432.0,40.801134764684065
433.0,40.84594776849883
434.0,40.89077806114939
435.0,40.9356249697267
436.0,40.980487837751824
437.0,41.02536600158135
438.0,41.0702588216394
439.0,41.11516565884975
440.0,41.1600858901019
441.0,41.20501888497097
442.0,41.24996403653148
443.0,41.29492073810263
444.0,41.33988840612781
445.0,41.3848664418886
446.0,41.4298542620448
447.0,41.4748513135228
448.0,41.51985702041704
449.0,41.564870821863536
450.0,41.6098921868065
451.0,41.65492056136237
452.0,41.69995541379956
453.0,41.74499622682502
454.0,41.79004247519372
455.0,41.83509364796909
456.0,41.880149240976095
457.0,41.92520875671695
458.0,41.97027171161386
459.0,42.0153376212174
460.0,42.060406000214066
461.0,42.105476391526224
462.0,42.15054831517003
463.0,42.195621333679526
464.0,42.2406949865879
465.0,42.28576882671807
466.0,42.33084242721401
467.0,42.37591534541297
468.0,42.42098715881437
469.0,42.466057457700586
470.0,42.51112581644519
471.0,42.55619182925787
472.0,42.60125509574709
473.0,42.64631522084552
474.0,42.6913718147326
475.0,42.736424492760044
476.0,42.78147286831718
477.0,42.826516573954336
478.0,42.87155523305149
479.0,42.91658848795137
480.0,42.96161598574891
481.0,43.006637357218366
482.0,43.05165226583223
483.0,43.096660358618465
484.0,43.14166130806298
485.0,43.186654770128115
486.0,43.23164041213122
487.0,43.27661791956764
488.0,43.32158696821875
489.0,43.3665472380228
490.0,43.41149841992004
491.0,43.45644020883718
492.0,43.50137229671945
493.0,43.546294386287514
494.0,43.59120618404903
495.0,43.63610739335583
496.0,43.68099774185537
497.0,43.72587693327898
498.0,43.77074468865512
499.0,43.815600739328296
500.0,43.860444813177104
501.0,43.905276634582464
502.0,43.95009595172975
503.0,43.99490249549382
504.0,44.0396960067533
505.0,44.08447623630429
506.0,44.129242931148625
507.0,44.173995841269985
508.0,44.21873473318347
509.0,44.263459355834016
510.0,44.308169474584126
511.0,44.35286485753325
512.0,44.39754526867149
513.0,44.44221048820344
514.0,44.486860278542025
515.0,44.53149441820594
516.0,44.57611269495585
517.0,44.620714892181724
518.0,44.66530078208878
519.0,44.70987016629481
520.0,44.75442282835356
521.0,44.79895856757025
522.0,44.84347716510777
523.0,44.887978438071336
524.0,44.932462171797894
525.0,44.976928180696106
526.0,45.02137626085053
527.0,45.06580622378908
528.0,45.11021787615146
529.0,45.15461103316323
530.0,45.19898550507389
531.0,45.24334111062781
532.0,45.28767766350534
533.0,45.33199499255294
534.0,45.37629291470952
535.0,45.42057124847811
536.0,45.46482982064569
537.0,45.50906846624045
538.0,45.553287008217154
539.0,45.59748527769139
540.0,45.64166310714394
541.0,45.68582033714534
542.0,45.729956796027636
543.0,45.77407232690087
544.0,45.81816676055727
545.0,45.8622399424988
546.0,45.90629171937436
547.0,45.95032192539621
548.0,45.99433041616703
549.0,46.03831702800572
550.0,46.08228161178441
551.0,46.126224019351305
552.0,46.17014409671329
553.0,46.214041704355395
554.0,46.25791667648775
555.0,46.30176888890263
556.0,46.345598184257774
557.0,46.3894044127762
558.0,46.43318744583826
559.0,46.476947135157275
560.0,46.52068334675617
561.0,46.564395926900275
562.0,46.60808474974382
563.0,46.65174966962152
564.0,46.69539055509486
565.0,46.73900726847529
566.0,46.78259967944475
567.0,46.82616764454051
568.0,46.86971104129498
569.0,46.91322973404399
570.0,46.95672358071481
571.0,47.00019246704839
572.0,47.043636251795
573.0,47.08705481464675
574.0,47.130448021943195
575.0,47.17381574034748
576.0,47.217157857459966
577.0,47.26047423369009
578.0,47.303764750351775
579.0,47.34702927525314
580.0,47.39026769711882
581.0,47.43347987732253
582.0,47.47666569812572
583.0,47.51982504199509
584.0,47.56295778466624
585.0,47.606063802024124
586.0,47.64914297008515
587.0,47.69219517885297
588.0,47.73522029070767
589.0,47.77821820280258
590.0,47.82118879156762
591.0,47.86413193348266
592.0,47.90704751202951
593.0,47.94993541770458
594.0,47.992795520129775
595.0,48.035627709842665
596.0,48.07843186343137
597.0,48.12120787144097
598.0,48.163955624417696
599.0,48.206674991874095
600.0,48.24936586426945
601.0,48.29202813202869
602.0,48.33466167147719
603.0,48.377266379933715
604.0,48.41984213355676
605.0,48.462388822468256
606.0,48.50490633670361
607.0,48.54739455208016
608.0,48.589853372523685
609.0,48.63228267360264
610.0,48.67468234486857
611.0,48.71705228282423
612.0,48.759392362579476
613.0,48.801702501640634
614.0,48.843982539284696
615.0,48.88623237134556
616.0,48.92845197896486
617.0,48.9706411296205
618.0,49.01279973283405
619.0,49.05492776943612
620.0,49.09702507744153
621.0,49.139091494458
622.0,49.18112700095509
623.0,49.22313143414088
624.0,49.26510463079952
625.0,49.30704664283779
626.0,49.348957234900084
627.0,49.39083631489213
628.0,49.43268379056414
629.0,49.47449956950455
630.0,49.51628348692528
631.0,49.558035522153695
632.0,49.599755509916235
633.0,49.641351762553796
634.0,49.68301169823225
635.0,49.724551994461116
636.0,49.766102266855434
637.0,49.80759602897743
638.0,49.849099967931835
639.0,49.89054887399627
640.0,49.93194153599421
641.0,49.97334360354172
642.0,50.014689183675245
643.0,50.05597791394813
644.0,50.09727703656263
645.0,50.138519073465716
646.0,50.17970367447033
647.0,50.220899626093185
648.0,50.26203615358843
649.0,50.30311552310364
650.0,50.344204602364236
651.0,50.38523540713575
652.0,50.426277018293746
653.0,50.46719132357579
654.0,50.50818433021051
655.0,50.54904843704497
656.0,50.58992424238911
657.0,50.63073967307727
658.0,50.671566125958336
659.0,50.71226178308642
660.0,50.753038649121564
661.0,50.79368489399759
662.0,50.834341250481046
663.0,50.87493602149776
664.0,50.91554205946899
665.0,50.95608715464572
666.0,50.99657007334393
667.0,51.037064353657186
668.0,51.07749710900761
669.0,51.11786706324847
670.0,51.158247576368495
671.0,51.19856688294486
672.0,51.238823689773334
673.0,51.279090248995715
674.0,51.31929407648944
675.0,51.35943571364285
676.0,51.39958723024124
677.0,51.439675384900255
678.0,51.47977365199007
679.0,51.519734241904274
680.0,51.55977995306554
681.0,51.59968631661286
682.0,51.63960373140746
683.0,51.6794575083001
684.0,51.71932067884919
685.0,51.75911902728487
686.0,51.79885218850942
687.0,51.83859771052825
688.0,51.87827685130792
689.0,51.91789018763457
690.0,51.95751411373766
691.0,51.997071973955215
692.0,52.03656340764603
693.0,52.07606557832986
694.0,52.11550106767978
695.0,52.15494754443982
696.0,52.19432806140989
697.0,52.2336393440431
698.0,52.27296369072417
699.0,52.3121405111314
700.0,52.351407462882094
701.0,52.390527099731244
702.0,52.429657880269986
703.0,52.46880015346688
704.0,52.50779277083639
705.0,52.54687915384158
706.0,52.585814128898825
707.0,52.62476162946548
708.0,52.663639744826234
709.0,52.70244510239769
710.0,52.74126512807674
711.0,52.78009720618689
712.0,52.81877510727183
713.0,52.85746582220159
714.0,52.896084905937826
715.0,52.93471707497143
716.0,52.97327738265642
717.0,53.01185206451194
718.0,53.05026878784784
719.0,53.08869759810942
720.0,53.12713890337096
721.0,53.165508507322556
722.0,53.20380500281887
723.0,53.242116196125224
724.0,53.28035302509258
725.0,53.31851612899871
726.0,53.35669409590105
727.0,53.39479602501612
728.0,53.432824647922686
729.0,53.47086831605101
730.0,53.508835322540776
731.0,53.54672944803998
732.0,53.584635660668766
733.0,53.6225574938383
734.0,53.66031319474095
735.0,53.69808427867203
736.0,53.73586799642477
737.0,53.77348735749723
738.0,53.8111201571014
739.0,53.84876682826436
740.0,53.886339344903945
741.0,53.92383200171926
742.0,53.96125083182338
743.0,53.998681434142355
744.0,54.03612743459368
745.0,54.07340338540854
746.0,54.110696661605246
747.0,54.148002287042516
748.0,54.1852312444244
749.0,54.2223810282584
750.0,54.2594534136752
751.0,54.29653928141977
752.0,54.33354751959793
753.0,54.37056952247342
754.0,54.40751479198886
755.0,54.44447521057093
756.0,54.481259539877044
757.0,54.51815600172668
758.0,54.55487561615951
759.0,54.59161267261659
760.0,54.628267384594
761.0,54.664939841927406
762.0,54.70153083713424
763.0,54.73804221904339
764.0,54.774565991449194
765.0,54.81101214901989
766.0,54.84747098210369
767.0,54.883850885467254
768.0,54.9201492436916
769.0,54.9564638528454
770.0,54.99269442145
771.0,55.02884625885187
772.0,55.06501113847676
773.0,55.10109478343898
774.0,55.137195191368406
775.0,55.173213017862224
776.0,55.209145647844124
777.0,55.24509864080338
778.0,55.28096391198979
779.0,55.31685101724143
780.0,55.35265017340173
781.0,55.38836905932479
782.0,55.42410427318431
783.0,55.45975322530484
784.0,55.49531903411088
785.0,55.53090137156738
786.0,55.56640149935903
787.0,55.6019149895007
788.0,55.63734724572389
789.0,55.672690923224366
790.0,55.708055137437086
791.0,55.74333290182268
792.0,55.77852619919078
793.0,55.813733214636045
794.0,55.84896258900109
795.0,55.88399896590549
796.0,55.919055167987864
797.0,55.9541268766783
798.0,55.989115882025644
799.0,56.02401472483797
800.0,56.058935220403924
801.0,56.09376533760212
802.0,56.12851064860493
803.0,56.16327308473154
804.0,56.19794935033508
805.0,56.23264065141848
806.0,56.26724797840892
807.0,56.301764983545354
808.0,56.3363032361157
809.0,56.37075338296468
810.0,56.4051114324849
811.0,56.439493394758244
812.0,56.47389121859747
813.0,56.50820297110391
814.0,56.54242220806128
815.0,56.57655467372379
816.0,56.610704318376165
817.0,56.644876461176
818.0,56.678845975338774
819.0,56.71284024613372
820.0,56.746851126733986
821.0,56.78077343700238
822.0,56.814601918500415
823.0,56.848454611731626
824.0,56.88221575302252
825.0,56.915997725582145
826.0,56.9496866878593
827.0,56.983288562613794
828.0,57.016907746671706
829.0,57.05043714080652
830.0,57.08387390751163
831.0,57.11733196730661
832.0,57.15081047080032
833.0,57.18408659094419
834.0,57.21749546378675
835.0,57.250700008178114
836.0,57.283925146073926
837.0,57.31705675057688
838.0,57.35021180421232
839.0,57.383271868864725
840.0,57.41635571541417
841.0,57.449345648126396
842.0,57.4822426428628
843.0,57.51516107688036
844.0,57.54810393467632
845.0,57.58083345561286
846.0,57.613589787128106
847.0,57.64636565427044
848.0,57.67905060906803
849.0,57.711639170048244
850.0,57.74425133763641
851.0,57.776766913985895
852.0,57.809190760552625
853.0,57.8416345765411
854.0,57.87398648642409
855.0,57.90635995223519
856.0,57.93864137062489
857.0,57.97094074929004
858.0,58.00315051896298
859.0,58.03526118676817
860.0,58.06739789620897
861.0,58.09955842942196
862.0,58.13150041528402
863.0,58.16347001315542
864.0,58.195462348293034
865.0,58.22736033117553
866.0,58.25915832007654
867.0,58.29098589868023
868.0,58.32271199383594
869.0,58.35446668495901
870.0,58.38612101677796
871.0,58.417680031862844
872.0,58.4492625343286
873.0,58.48074952158939
874.0,58.512260328611035
875.0,58.543675464738044
876.0,58.575114705433634
877.0,58.60645678272233
878.0,58.63769867271668
879.0,58.6689702726984
880.0,58.7001388268766
881.0,58.731338779294774
882.0,58.762435473357186
883.0,58.793439492769636
884.0,58.82446426618675
885.0,58.85551972465208
886.0,58.88634507353291
887.0,58.917329068518086
888.0,58.94808092505842
889.0,58.97899496232296
890.0,59.009678957188086
891.0,59.04038725888853
892.0,59.070997815238556
893.0,59.101637092653874
894.0,59.132174347029235
895.0,59.162739243194125
896.0,59.19320470989031
897.0,59.22369950220585
898.0,59.2540933163564
899.0,59.28438164582283
900.0,59.31470510853431
901.0,59.34492153469539
902.0,59.37517338962293
903.0,59.40531802188556
904.0,59.43549419280184
905.0,59.46556856301915
906.0,59.495540850172304
907.0,59.525542077645966
908.0,59.55557403688687
909.0,59.58537063436289
910.0,59.61533127199047
911.0,59.64505450471539
912.0,59.6748086108514
913.0,59.70459252812168
914.0,59.734273665286736
915.0,59.7638517340355
916.0,59.793461248516124
917.0,59.823103987662606
918.0,59.85250263550299
919.0,59.88207272187492
920.0,59.91140094911022
921.0,59.940761109407404
922.0,59.9701521094633
923.0,59.99943937500477
924.0,60.02862114707246
925.0,60.05783829458767
926.0,60.086945435392394
927.0,60.116089684759686
928.0,60.145125209056644
929.0,60.17419810558806
930.0,60.203157761800085
931.0,60.23215798596409
932.0,60.26104911596204
933.0,60.28983377873469
934.0,60.3186519253086
935.0,60.34750536838473
936.0,60.3762508308583
937.0,60.40489386822698
938.0,60.43356212957822
939.0,60.462132208903384
940.0,60.49059202794275
941.0,60.51922784443603
942.0,60.54761462557468
943.0,60.57603732414081
944.0,60.60449186923607
945.0,60.63283888613171
946.0,60.66108253431186
947.0,60.68935669308087
948.0,60.71752583968684
949.0,60.74572721103053
950.0,60.77382337886337
951.0,60.80195203529044
952.0,60.829973833662365
953.0,60.858029832403034
954.0,60.88598030937071
955.0,60.913818957989534
956.0,60.941694972993886
957.0,60.96960565008908
958.0,60.99740744457739
959.0,61.025100078992324
960.0,61.052830536479874
961.0,61.080448618250955
962.0,61.10810777766105
963.0,61.13565137192961
964.0,61.16323627789059
965.0,61.19070539993129
966.0,61.21821608856055
967.0,61.24561382785495
968.0,61.27305642788245
969.0,61.30037978874283
970.0,61.32759583499943
971.0,61.35485075652775
972.0,61.38213877809896
973.0,61.40931939727882
974.0,61.43638620111453
975.0,61.46349540721674
976.0,61.490635014878336
977.0,61.51766687485677
978.0,61.54458762014029
979.0,61.57154809419781
980.0,61.59839418763502
981.0,61.625280231752214
982.0,61.65205169407837
983.0,61.67886641134986
984.0,61.705563238087635
985.0,61.73230040899418
986.0,61.7589226159084
987.0,61.78558845762015
988.0,61.8121391266602
989.0,61.83857746065834
990.0,61.86505643092664
991.0,61.89157007395137
992.0,61.91797127308351
993.0,61.944416716691805
994.0,61.970740107453
995.0,61.99695997425249
996.0,62.02321163424233
997.0,62.049504759079966
998.0,62.07568799775463
999.0,62.10175159653319
1000.0,62.12785990938333
1001.0,62.15400058271092
1002.0,62.18003412123194
1003.0,62.205947616352674
1004.0,62.231906165074676
1005.0,62.257747635463474
1006.0,62.28362797669109
1007.0,62.30954745214811
1008.0,62.33535288415041
1009.0,62.361047170189394
1010.0,62.38677745003254
1011.0,62.412393200483194
1012.0,62.43805147545797
1013.0,62.46374615530533
1014.0,62.48917485606982
1015.0,62.5147912091703
1016.0,62.54030228932989
1017.0,62.56568859831809
1018.0,62.591121070132715
1019.0,62.61643496766028
1020.0,62.641788763174915
1021.0,62.66702696528884
1022.0,62.69230844186578
1023.0,62.71762692329558
1024.0,62.742832911601056
