T(K),Cp_Thiswork
200.0,33.35282330817016
201.0,33.352666396092104
202.0,33.35255628437869
203.0,33.35249355619491
204.0,33.35247820208802
205.0,33.352510206113124
206.0,33.35259010894123
207.0,33.3527178710395
208.0,33.352895113773954
209.0,33.353120649659104
210.0,33.35339496013916
211.0,33.3537190520244
212.0,33.354092816648546
213.0,33.35451614110669
214.0,33.354989442623676
215.0,33.35551312068199
216.0,33.356087557456775
217.0,33.35671207017221
218.0,33.357387548391884
219.0,33.3581143346196
220.0,33.35889172730511
221.0,33.35972056798882
222.0,33.36060065462638
223.0,33.36153228748718
224.0,33.36251575213973
225.0,33.363550821668504
226.0,33.364637762623175
227.0,33.365776827733185
228.0,33.366967767337805
229.0,33.36821081659626
230.0,33.3695061976701
231.0,33.37085364012367
232.0,33.372253826865375
233.0,33.37370599474393
234.0,33.37521033429036
235.0,33.376767492533624
236.0,33.37837669727173
237.0,33.3800390382949
238.0,33.38175327274135
239.0,33.383520465788266
240.0,33.38533983262778
241.0,33.387211503258314
242.0,33.389136046379406
243.0,33.39111311756636
244.0,33.393142373423
245.0,33.395224353493255
246.0,33.397358700820405
247.0,33.399545495525224
248.0,33.401784375600144
249.0,33.40407584180003
250.0,33.406419091766914
251.0,33.40881503738788
252.0,33.411262869757856
253.0,33.41376263314722
254.0,33.416314782154785
255.0,33.41891850643346
256.0,33.42157424773055
257.0,33.424281608658475
258.0,33.4270410115105
259.0,33.429851642978456
260.0,33.432713913655185
261.0,33.435627816293206
262.0,33.43859253809069
263.0,33.44160886677431
264.0,33.44467638071206
265.0,33.44779466106394
266.0,33.45096368229453
267.0,33.45418380119844
268.0,33.45745458766352
269.0,33.460775614584534
270.0,33.464147221600314
271.0,33.4675693545723
272.0,33.471041198753554
273.0,33.4745634532271
274.0,33.47813530128654
275.0,33.481757052112656
276.0,33.48542826295896
277.0,33.48914922921332
278.0,33.49291950277172
279.0,33.496738639004974
280.0,33.50060728098201
281.0,33.5045246138228
282.0,33.5084905490976
283.0,33.512504994173426
284.0,33.51656820600354
285.0,33.5206793746309
286.0,33.52483875106746
287.0,33.529046226967104
288.0,33.53330134414732
289.0,33.537603992554395
290.0,33.541954058585034
291.0,33.546351765878114
292.0,33.55079631083919
293.0,33.55528791230337
294.0,33.55982610809206
295.0,33.564411107143364
296.0,33.56904211283398
297.0,33.573719990024635
298.0,33.57844360964773
299.0,33.58321284049387
300.0,33.58802819853594
301.0,33.5928888903305
302.0,33.59779509821992
303.0,33.60274635537621
304.0,33.607742517477426
305.0,33.61278375451356
306.0,33.61786928234699
307.0,33.622999267993535
308.0,33.62817355792177
309.0,33.63339199647619
310.0,33.63865411718739
311.0,33.643960072229795
312.0,33.64930939429236
313.0,33.65470222858382
314.0,33.66013780456978
315.0,33.66561656641358
316.0,33.67113774613705
317.0,33.676701778436
318.0,33.68230789804049
319.0,33.68795623536114
320.0,33.69364632603869
321.0,33.699378294528145
322.0,33.705151967279185
323.0,33.71096688002752
324.0,33.71682286084201
325.0,33.722719736492635
326.0,33.72865761765627
327.0,33.734636040730656
328.0,33.74065454652831
329.0,33.746713523305075
330.0,33.75281222867176
331.0,33.758950765033966
332.0,33.765128951441866
333.0,33.77134660602725
334.0,33.77760327170552
335.0,33.78389904185938
336.0,33.79023346036083
337.0,33.79660661637855
338.0,33.80301805486833
339.0,33.809467593093196
340.0,33.815955314256485
341.0,33.8224807651518
342.0,33.82904376112367
343.0,33.83564437983257
344.0,33.84228190850219
345.0,33.848956685430814
346.0,33.855668261014166
347.0,33.862416190073944
348.0,33.869200802310935
349.0,33.8760213949236
350.0,33.88287829212831
351.0,33.88977079522254
352.0,33.89669897098816
353.0,33.90366263031159
354.0,33.91066158386169
355.0,33.91769539341476
356.0,33.92476436782658
357.0,33.93186782098928
358.0,33.939005566324006
359.0,33.94617790558633
360.0,33.95338415911242
361.0,33.96062438210618
362.0,33.96789814347366
363.0,33.97520549620394
364.0,33.98254601138851
365.0,33.9899199776726
366.0,33.99732649184888
367.0,34.004766077297795
368.0,34.012238071943806
369.0,34.019742289314024
370.0,34.02727900814867
371.0,34.034847341574206
372.0,34.042447798175985
373.0,34.05007972710639
374.0,34.05774294280999
375.0,34.0654374874684
376.0,34.073163173043085
377.0,34.080919586258595
378.0,34.0887067671915
379.0,34.09652452874895
380.0,34.10437246155231
381.0,34.112250603783615
382.0,34.12015876944314
383.0,34.12809655313579
384.0,34.13606399134776
385.0,34.14406089930965
386.0,34.15208687568797
387.0,34.160141955460475
388.0,34.16822595521556
389.0,34.17633869202703
390.0,34.184479983466595
391.0,34.19264943513317
392.0,34.20084729148538
393.0,34.209072947571485
394.0,34.21732643554198
395.0,34.225607784588696
396.0,34.23391639670376
397.0,34.24225230309548
398.0,34.2506153257229
399.0,34.259005492685944
400.0,34.26742221522359
401.0,34.27586572737253
402.0,34.284335648017546
403.0,34.29283180222143
404.0,34.30135421707466
405.0,34.30990231535501
406.0,34.3184765258014
407.0,34.327076074417235
408.0,34.3357011883029
409.0,34.34435169413868
410.0,34.35302722276084
411.0,34.36172780043519
412.0,34.37045306101096
413.0,34.379203030629206
414.0,34.38797753961235
415.0,34.396776419035504
416.0,34.40559930880352
417.0,34.41444642612642
418.0,34.423317221259175
419.0,34.43221172025575
420.0,34.441129946953815
421.0,34.45007135843639
422.0,34.459036168317894
423.0,34.46802402494529
424.0,34.477034952408005
425.0,34.48606841683705
426.0,34.49512462922824
427.0,34.50420342793831
428.0,34.51330446899592
429.0,34.522427777001035
430.0,34.531573192816076
431.0,34.540740377073824
432.0,34.54992935478007
433.0,34.55913996932675
434.0,34.568372064957785
435.0,34.577625486771105
436.0,34.58690008072048
437.0,34.59619569361725
438.0,34.60551234947787
439.0,34.61484954348241
440.0,34.62420765209684
441.0,34.63358599852829
442.0,34.64298478332979
443.0,34.65240385656922
444.0,34.66184306920377
445.0,34.67130210126386
446.0,34.68078097856576
447.0,34.690279554725095
448.0,34.69979768424805
449.0,34.70933522253113
450.0,34.71889202586112
451.0,34.72846811949992
452.0,34.73806319221148
453.0,34.74767710296265
454.0,34.7573098778785
455.0,34.766961210237376
456.0,34.77663112675825
457.0,34.78631948819699
458.0,34.79602615621626
459.0,34.80575083006868
460.0,34.81549370043797
461.0,34.825254305641494
462.0,34.83503283584629
463.0,34.84482915550869
464.0,34.85464280910596
465.0,34.864473986079844
466.0,34.87432255361638
467.0,34.88418822104494
468.0,34.894071017250454
469.0,34.90397081214057
470.0,34.913887476529005
471.0,34.92382088213319
472.0,34.93377090157181
473.0,34.943737408362345
474.0,34.953720431883085
475.0,34.96371969141517
476.0,34.97373521707225
477.0,34.983766730994915
478.0,34.99381426403335
479.0,35.00387769350492
480.0,35.01395674579883
481.0,35.02405160418885
482.0,35.03416199633472
483.0,35.04428780312563
484.0,35.0544290561293
485.0,35.064585487206294
486.0,35.07475697989906
487.0,35.084943566925
488.0,35.09514513209623
489.0,35.10536156010966
490.0,35.11559273654319
491.0,35.12583854785196
492.0,35.13609888136452
493.0,35.14637362527902
494.0,35.15666281357406
495.0,35.16696619031535
496.0,35.17728379026677
497.0,35.18761550367218
498.0,35.19796107860069
499.0,35.20832069356648
500.0,35.21869409789312
501.0,35.22908104359966
502.0,35.23948185020477
503.0,35.249895988095425
504.0,35.26032363545776
505.0,35.270764688003695
506.0,35.28121904229169
507.0,35.29168645674562
508.0,35.30216710799551
509.0,35.31266061759267
510.0,35.323167162072735
511.0,35.333686503620335
512.0,35.34421868058372
513.0,35.35476345765822
514.0,35.365320873971996
515.0,35.37589083223635
516.0,35.38647323597675
517.0,35.39706785483077
518.0,35.40767486374701
519.0,35.418294167419646
520.0,35.42892553789159
521.0,35.43956888269277
522.0,35.45022424278359
523.0,35.460891526048016
524.0,35.47157064115815
525.0,35.4822614975693
526.0,35.49296400551475
527.0,35.50367807600074
528.0,35.51440375105953
529.0,35.52514094205698
530.0,35.53588943164975
531.0,35.54664926299118
532.0,35.55742034973647
533.0,35.568202606295586
534.0,35.57899594782805
535.0,35.589800290237605
536.0,35.60061567736215
537.0,35.611442025457706
538.0,35.62227912507084
539.0,35.63312702112276
540.0,35.64398575778269
541.0,35.65485500243954
542.0,35.66573480107408
543.0,35.67662519892304
544.0,35.687526116230494
545.0,35.69843735004987
546.0,35.70935894666658
547.0,35.72029082844736
548.0,35.731232918457756
549.0,35.74218514045641
550.0,35.75314741888981
551.0,35.76411980068685
552.0,35.775102210620375
553.0,35.78609445303283
554.0,35.797096575851384
555.0,35.80810850587506
556.0,35.81913017056903
557.0,35.83016161782059
558.0,35.84120265598308
559.0,35.85225333358923
560.0,35.86331346096445
561.0,35.8743830872722
562.0,35.88546214289232
563.0,35.896550558843416
564.0,35.90764838424087
565.0,35.91875543325793
566.0,35.92987163880158
567.0,35.940997167405015
568.0,35.95213171892901
569.0,35.96327534399871
570.0,35.97442797702719
571.0,35.98558955303261
572.0,35.99676012257278
573.0,36.0079395063039
574.0,36.01912775535721
575.0,36.03032480620751
576.0,36.041530595917294
577.0,36.05274506213122
578.0,36.063968256186186
579.0,36.075199890345615
580.0,36.08644024242376
581.0,36.0976890261185
582.0,36.10894629384444
583.0,36.12021198575841
584.0,36.13148604257086
585.0,36.142768405540764
586.0,36.15405912723989
587.0,36.165358149148645
588.0,36.1766653030902
589.0,36.18798064238753
590.0,36.19930411012444
591.0,36.21063575926227
592.0,36.22197542401948
593.0,36.233323049044174
594.0,36.24467868801301
595.0,36.25604228576317
596.0,36.267413787639214
597.0,36.27879313948799
598.0,36.29018028765334
599.0,36.30157528612937
600.0,36.31297808143432
601.0,36.32438851395239
602.0,36.335806638330276
603.0,36.34723240253563
604.0,36.35866575501009
605.0,36.37010675023507
606.0,36.381555231494616
607.0,36.393011253678125
608.0,36.40447466151013
609.0,36.415945614811406
610.0,36.427423958956986
611.0,36.4389096448204
612.0,36.450402727494286
613.0,36.46190305445002
614.0,36.473410681151194
615.0,36.48492555946521
616.0,36.496447641688526
617.0,36.50797688054167
618.0,36.51951333145487
619.0,36.53105694725117
620.0,36.54260757936596
621.0,36.55416528373772
622.0,36.56573001442122
623.0,36.577301725873426
624.0,36.588880473795236
625.0,36.600466112113644
626.0,36.61205869684139
627.0,36.623658183296804
628.0,36.63526452718338
629.0,36.64687768458495
630.0,36.65849771140636
631.0,36.67012446457381
632.0,36.68175800027491
633.0,36.693398176629785
634.0,36.70504514862807
635.0,36.71669877488573
636.0,36.72835901336038
637.0,36.74002592022093
638.0,36.75169935581554
639.0,36.76337947397869
640.0,36.77506603832818
641.0,36.78675920249659
642.0,36.798458828415534
643.0,36.810164875764876
644.0,36.82187740087969
645.0,36.83359645955791
646.0,36.84532181935896
647.0,36.85705353693584
648.0,36.86879166840371
649.0,36.88053607880924
650.0,36.892286824465415
651.0,36.904043866302274
652.0,36.91580716555241
653.0,36.927576683747034
654.0,36.93935247694232
655.0,36.95113441261378
656.0,36.96292254698848
657.0,36.974716842144645
658.0,36.98651726044377
659.0,36.99832385774502
660.0,37.01013641032812
661.0,37.0219551604388
662.0,37.03377988510022
663.0,37.04561064046045
664.0,37.05744748214278
665.0,37.06929018914826
666.0,37.081138909653774
667.0,37.09299360724384
668.0,37.10485424575738
669.0,37.116720789283576
670.0,37.12859320215815
671.0,37.140471448959474
672.0,37.15235558519939
673.0,37.16424548485965
674.0,37.176141293866046
675.0,37.188042886481824
676.0,37.19995013794531
677.0,37.211863283514205
678.0,37.22378210855722
679.0,37.23570666832639
680.0,37.24763683912838
681.0,37.25957276531524
682.0,37.2715144122946
683.0,37.28346165701185
684.0,37.29541446583348
685.0,37.30737298196683
686.0,37.31933699483088
687.0,37.3313066473243
688.0,37.34328190555184
689.0,37.35526256058108
690.0,37.367248842279984
691.0,37.37924062954042
692.0,37.391237889232926
693.0,37.40324058841141
694.0,37.41524878106692
695.0,37.4272623475143
696.0,37.439281428176955
697.0,37.451305903553205
698.0,37.46333565498705
699.0,37.47537090832183
700.0,37.48741145882008
701.0,37.49945735999164
702.0,37.51150857942696
703.0,37.52356508487672
704.0,37.535626844248824
705.0,37.54769391053692
706.0,37.55976625146938
707.0,37.57184383492695
708.0,37.58392662893934
709.0,37.59601460168269
710.0,37.60810780560799
711.0,37.62020620870104
712.0,37.63230977908927
713.0,37.644418401378324
714.0,37.65653221144604
715.0,37.6686511773596
716.0,37.68077518412517
717.0,37.69290428357748
718.0,37.70503844417537
719.0,37.71717771723897
720.0,37.729321905852025
721.0,37.741471226596374
722.0,37.753625482948756
723.0,37.765784726105586
724.0,37.77794900677923
725.0,37.79011821152996
726.0,37.80229239099988
727.0,37.814471432268704
728.0,37.826655385900146
729.0,37.8388443019779
730.0,37.8510380679016
731.0,37.8632366527134
732.0,37.87544018718563
733.0,37.88764847835211
734.0,37.899861656607825
735.0,37.912079529752816
736.0,37.92430230804618
737.0,37.93652979961685
738.0,37.94876205370697
739.0,37.96099911908597
740.0,37.973240804993814
741.0,37.98548724006005
742.0,37.997738393069014
743.0,38.009994232889085
744.0,38.02225480760713
745.0,38.03451992784132
746.0,38.04678972083702
747.0,38.059064155370066
748.0,38.07134320029236
749.0,38.08362674606599
750.0,38.0959149970783
751.0,38.10820776520356
752.0,38.120505019577436
753.0,38.13280688526994
754.0,38.14511317515282
755.0,38.157424013901576
756.0,38.169739370125804
757.0,38.18205921249872
758.0,38.19438343246931
759.0,38.2067121535324
760.0,38.21904526712582
761.0,38.23138274215758
762.0,38.243724701144586
763.0,38.25607095904269
764.0,38.26842163797129
765.0,38.28077662989583
766.0,38.29313590360866
767.0,38.30549958025608
768.0,38.31786747592446
769.0,38.3302397113616
770.0,38.34261617902457
771.0,38.35499692323071
772.0,38.36738191231255
773.0,38.379771039223954
774.0,38.39216442334572
775.0,38.40456203277447
776.0,38.416963760585006
777.0,38.42936965025474
778.0,38.44177974482331
779.0,38.454193862770666
780.0,38.46661212191674
781.0,38.479034490228855
782.0,38.4914609357087
783.0,38.50389142639102
784.0,38.516325930341445
785.0,38.52876448966822
786.0,38.5412070721524
787.0,38.55365364560454
788.0,38.566104177863224
789.0,38.57855863679373
790.0,38.59101706373287
791.0,38.60347942625896
792.0,38.615945691975774
793.0,38.6284159016225
794.0,38.640889949516115
795.0,38.65336780332899
796.0,38.66584957631601
797.0,38.67833509018759
798.0,38.69082445780096
799.0,38.703317646252366
800.0,38.71581455031003
801.0,38.72831528191105
802.0,38.74081966361858
803.0,38.75332787899998
804.0,38.765839678838475
805.0,38.778355246093426
806.0,38.790874475632634
807.0,38.80339733436443
808.0,38.81592378920958
809.0,38.82845394989422
810.0,38.84098764015384
811.0,38.85352496932341
812.0,38.86606583266244
813.0,38.87861019683723
814.0,38.891158170288286
815.0,38.90370957752594
816.0,38.91626452660249
817.0,38.92882291303056
818.0,38.941384773692846
819.0,38.953950074698874
820.0,38.96651878216488
821.0,38.97909093239579
822.0,38.99166642114079
823.0,39.00424528451886
824.0,39.01682748837396
825.0,39.029413068344965
826.0,39.04200192030088
827.0,39.05459401009905
828.0,39.06718944259888
829.0,39.07978811368203
830.0,39.092389988926016
831.0,39.10499510312333
832.0,39.11760335245181
833.0,39.13021484054242
834.0,39.142829463482215
835.0,39.15544725541013
836.0,39.16806811260463
837.0,39.180692069019265
838.0,39.193319158236264
839.0,39.205949276537126
840.0,39.21858245732105
841.0,39.231218597053655
842.0,39.2438577971421
843.0,39.2564999539604
844.0,39.26914510026743
845.0,39.281793132617466
846.0,39.29444415141886
847.0,39.30709798539132
848.0,39.31975480223616
849.0,39.3324144307603
850.0,39.345076835432025
851.0,39.35774218288449
852.0,39.37041023488489
853.0,39.383081090321696
854.0,39.39575471312783
855.0,39.40843106723422
856.0,39.421110183525045
857.0,39.433791958798864
858.0,39.44647642376317
859.0,39.45916354208221
860.0,39.47185327741731
861.0,39.48454565995746
862.0,39.49724058665882
863.0,39.50993815389871
864.0,39.52263819226563
865.0,39.535340797796174
866.0,39.548045933633134
867.0,39.56075356291679
868.0,39.57346358283666
869.0,39.58617615437449
870.0,39.59889104281567
871.0,39.6116084086466
872.0,39.624328148882995
873.0,39.637050226404696
874.0,39.64977460408929
875.0,39.66250137557637
876.0,39.67523037265198
877.0,39.687961688632335
878.0,39.70069522076201
879.0,39.71343099673227
880.0,39.72616897892934
881.0,39.73890912973795
882.0,39.7516514763731
883.0,39.76439591622773
884.0,39.777142476358115
885.0,39.789891183510015
886.0,39.80264187054853
887.0,39.81539469318954
888.0,39.82814948437251
889.0,39.84090633482976
890.0,39.85366514202452
891.0,39.86642586786763
892.0,39.879188602410096
893.0,39.891953179119625
894.0,39.90471968774874
895.0,39.91748808975974
896.0,39.93025828284097
897.0,39.943030292378594
898.0,39.95580414346589
899.0,39.96857973379367
900.0,39.98135708831195
901.0,39.99413616827054
902.0,40.00691699826052
903.0,40.019699476053034
904.0,40.03248356290405
905.0,40.04526934632038
906.0,40.058056724081126
907.0,40.07084572021871
908.0,40.08363623266145
909.0,40.09642828530686
910.0,40.109221901776195
911.0,40.12201698000912
912.0,40.13481354349646
913.0,40.147611490325076
914.0,40.16041090635298
915.0,40.17321175203655
916.0,40.18601392547866
917.0,40.1988175119372
918.0,40.21162234723517
919.0,40.22442851637073
920.0,40.23723597962937
921.0,40.25004463528211
922.0,40.26285456774191
923.0,40.27566573711739
924.0,40.28847804170236
925.0,40.3012915035786
926.0,40.314106082880556
927.0,40.326921801378134
928.0,40.3397386190283
929.0,40.35255643430099
930.0,40.36537533023167
931.0,40.37819520524615
932.0,40.3910160806455
933.0,40.403837916245635
934.0,40.416660733050264
935.0,40.429484368484054
936.0,40.44230896573582
937.0,40.45513436231828
938.0,40.46796063995427
939.0,40.48078769729598
940.0,40.49361555485624
941.0,40.50644417217616
942.0,40.51927356948727
943.0,40.53210364556196
944.0,40.544934359986726
945.0,40.557765793344196
946.0,40.57059784445504
947.0,40.58343047276973
948.0,40.59626375837269
949.0,40.60909753988821
950.0,40.6219318971946
951.0,40.634766729321804
952.0,40.647602055696034
953.0,40.660437895524986
954.0,40.673274087944556
955.0,40.68611071215291
956.0,40.69894772722964
957.0,40.711785152050666
958.0,40.72462282612801
959.0,40.73746082809832
960.0,40.75029911695189
961.0,40.76313771124636
962.0,40.77597645087171
963.0,40.788815473348485
964.0,40.80165461867138
965.0,40.8144939052625
966.0,40.82733335134162
967.0,40.84017291572415
968.0,40.85301255725176
969.0,40.86585217570037
970.0,40.87869190723822
971.0,40.891531592491305
972.0,40.904371249331184
973.0,40.917210895437194
974.0,40.93005043066514
975.0,40.94288987264068
976.0,40.9557291800932
977.0,40.96856831178215
978.0,40.981407285094335
979.0,40.99424605868625
980.0,41.00708453275479
981.0,41.01992284149293
982.0,41.032760826561514
983.0,41.045598505074835
984.0,41.05843583568769
985.0,41.07127277708959
986.0,41.08410940434875
987.0,41.096945559663716
988.0,41.10978125989263
989.0,41.12261652172096
990.0,41.135451303695376
991.0,41.14828556439911
992.0,41.16111926245087
993.0,41.173952414319494
994.0,41.186784978543805
995.0,41.19961691370154
996.0,41.21244817840762
997.0,41.22527878892559
998.0,41.23810870379723
999.0,41.25093788160261
1000.0,41.26376628096216
1001.0,41.27659397535862
1002.0,41.28942080847239
1003.0,41.30224679635678
1004.0,41.31507195491085
1005.0,41.32789624266404
1006.0,41.340719618188814
1007.0,41.35354209721797
1008.0,41.36636358119655
1009.0,41.37918408584807
1010.0,41.39200356977405
1011.0,41.4048219916217
1012.0,41.41763942383819
1013.0,41.43045571121456
1014.0,41.44327086931683
1015.0,41.456084913567786
1016.0,41.46889780256058
1017.0,41.48170949493532
1018.0,41.494520005975886
1019.0,41.507329237730865
1020.0,41.52013714898437
1021.0,41.53294381148494
1022.0,41.545749183839206
1023.0,41.55855316833892
