T(K),Cp_Thiswork
200.0,29.126203147086308
201.0,29.126322706517847
202.0,29.12643998138327
203.0,29.126555361784703
204.0,29.126668673893725
205.0,29.126780295534296
206.0,29.126890321080154
207.0,29.12699857445319
208.0,29.127105415927172
209.0,29.127210668066063
210.0,29.12731467993497
211.0,29.127417530420328
212.0,29.12751904036418
213.0,29.12761954283141
214.0,29.12771910824429
215.0,29.12781755603458
216.0,29.127915204148234
217.0,29.12801187121763
218.0,29.12810810729431
219.0,29.128203244728418
220.0,29.12829806396242
221.0,29.128392140780566
222.0,29.128485765401564
223.0,29.128578754951434
224.0,29.12867139108741
225.0,29.128763718003604
226.0,29.128855552508522
227.0,29.128947164088448
228.0,29.129038591023427
229.0,29.129129650083648
230.0,29.12922059931134
231.0,29.129311471561508
232.0,29.129402083835338
233.0,29.129492683426115
234.0,29.129583298232067
235.0,29.129673954621126
236.0,29.129764470325142
237.0,29.1298548738988
238.0,29.12994559993237
239.0,29.130036259818116
240.0,29.13012707831529
241.0,29.13021787462442
242.0,29.130309064903624
243.0,29.130400073017434
244.0,29.13049150523517
245.0,29.13058298516235
246.0,29.130674720805246
247.0,29.130766723498656
248.0,29.13085881557332
249.0,29.13095119747291
250.0,29.131043877716742
251.0,29.131136680298205
252.0,29.13122998086162
253.0,29.131323238670678
254.0,29.131417005800323
255.0,29.131510926493608
256.0,29.13160518547768
257.0,29.131699785986186
258.0,29.131794556577553
259.0,29.131889675989214
260.0,29.131985145677035
261.0,29.13208096657919
262.0,29.132176970236436
263.0,29.132273328053365
264.0,29.132370039542945
265.0,29.132466938622443
266.0,29.132564191632035
267.0,29.132661796902237
268.0,29.13275975243308
269.0,29.132857895499864
270.0,29.132956386251998
271.0,29.13305522180122
272.0,29.133154242046118
273.0,29.133253602864194
274.0,29.133353300679275
275.0,29.133453331739062
276.0,29.133553539581044
277.0,29.13365407486448
278.0,29.133754933389056
279.0,29.13385611085272
280.0,29.13395745455231
281.0,29.134059110413226
282.0,29.13416107389647
283.0,29.134263195172345
284.0,29.134365616897618
285.0,29.134468334437102
286.0,29.134571343162246
287.0,29.134674497147692
288.0,29.13477807541064
289.0,29.134881652318636
290.0,29.134985644440736
291.0,29.13508976944701
292.0,29.1351942989776
293.0,29.135298818889247
294.0,29.135403734835926
295.0,29.13550877220743
296.0,29.135614195736522
297.0,29.135719602486542
298.0,29.13582538779348
299.0,29.135931284623798
300.0,29.136037421659026
301.0,29.13614379559126
302.0,29.1362504032764
303.0,29.136357114673018
304.0,29.136464055686922
305.0,29.13657122367829
306.0,29.13667861619426
307.0,29.136786107131286
308.0,29.136893819841752
309.0,29.137001752439552
310.0,29.137109781739078
311.0,29.13721815004157
312.0,29.137326613827717
313.0,29.137435293535
314.0,29.137544069826347
315.0,29.13765317978675
316.0,29.137762386757288
317.0,29.13787180902594
318.0,29.137981331036407
319.0,29.13809118492087
320.0,29.138201140695223
321.0,29.138311314641243
322.0,29.13842159490583
323.0,29.138532208906547
324.0,29.13864293314521
325.0,29.138753882021796
326.0,29.138864947301034
327.0,29.138976351901526
328.0,29.13908787862013
329.0,29.139199640083135
330.0,29.139311639065866
331.0,29.139423771730556
332.0,29.139536255648736
333.0,29.139648881222108
334.0,29.139761654020333
335.0,29.13987478853249
336.0,29.139988079573467
337.0,29.140101636491064
338.0,29.14021546388905
339.0,29.14032956659964
340.0,29.140443848311584
341.0,29.140558416845835
342.0,29.140673277697495
343.0,29.14078843658499
344.0,29.140903800376783
345.0,29.141019573939943
346.0,29.141135566063138
347.0,29.1412517850019
348.0,29.14136843290086
349.0,29.141485322513446
350.0,29.141602558450217
351.0,29.14172014813378
352.0,29.141838099196015
353.0,29.141956325297294
354.0,29.142074929704357
355.0,29.142193920654236
356.0,29.142313306586612
357.0,29.142433004020077
358.0,29.142553114924397
359.0,29.14267364832522
360.0,29.142794613444313
361.0,29.142916019698177
362.0,29.14303778705058
363.0,29.143160015914518
364.0,29.14328271626914
365.0,29.143405810073286
366.0,29.143529484570564
367.0,29.14365357434714
368.0,29.143778178324844
369.0,29.143903307399587
370.0,29.144028886758143
371.0,29.144155014453716
372.0,29.144281701912096
373.0,29.14440896073693
374.0,29.144536802708565
375.0,29.144665156117192
376.0,29.14479411762745
377.0,29.144923699532605
378.0,29.145053914298376
379.0,29.145184692612737
380.0,29.145316130073958
381.0,29.14544832076126
382.0,29.145581034476493
383.0,29.145714527859223
384.0,29.145848653390438
385.0,29.145983505397403
386.0,29.146119097676063
387.0,29.146255444188043
388.0,29.146392480777394
389.0,29.14653037869271
390.0,29.146668996209527
391.0,29.14680834910351
392.0,29.146948606766372
393.0,29.147089630276348
394.0,29.14723151184275
395.0,29.147374266719932
396.0,29.14751791032502
397.0,29.147662383369024
398.0,29.147807851695845
399.0,29.14795418183168
400.0,29.14810139092034
401.0,29.14824964310473
402.0,29.14839880755244
403.0,29.148548974583832
404.0,29.148700160898837
405.0,29.148852383360172
406.0,29.14900558730652
407.0,29.149159933640327
408.0,29.149315296674438
409.0,29.149471694928547
410.0,29.149629287755815
411.0,29.14978795196907
412.0,29.149947776235294
413.0,29.15010877871139
414.0,29.150270977719142
415.0,29.150434323025813
416.0,29.150598971041077
417.0,29.150764803456116
418.0,29.150931840192747
419.0,29.151100236256948
420.0,29.15126987571364
421.0,29.151440845810463
422.0,29.151613166187094
423.0,29.151786856651277
424.0,29.151961871227265
425.0,29.15213836225974
426.0,29.15231621845057
427.0,29.15249546115743
428.0,29.152676241457883
429.0,29.152858450311406
430.0,29.15304217376936
431.0,29.153227432982717
432.0,29.153414249273325
433.0,29.15360258076526
434.0,29.15379257613638
435.0,29.153984130756545
436.0,29.15417726744874
437.0,29.154372133748446
438.0,29.154568627172267
439.0,29.15476683277661
440.0,29.154966773243196
441.0,29.15516847142544
442.0,29.155371889390405
443.0,29.15557717250886
444.0,29.155784222486727
445.0,29.15599306362502
446.0,29.15620384026217
447.0,29.156416456140207
448.0,29.15663099549064
449.0,29.1568474825243
450.0,29.15706594162188
451.0,29.15728633862483
452.0,29.157508757441754
453.0,29.157733222954434
454.0,29.157959760212414
455.0,29.15818839443254
456.0,29.158419093473
457.0,29.158651940870243
458.0,29.158886962332563
459.0,29.159124126895975
460.0,29.159363574494847
461.0,29.15960521787646
462.0,29.15984914023077
463.0,29.16009531212824
464.0,29.16034387234692
465.0,29.160594736046242
466.0,29.160847986150884
467.0,29.1611036497979
468.0,29.161361699412367
469.0,29.161622272378672
470.0,29.161885286767124
471.0,29.1621507709423
472.0,29.16241886147362
473.0,29.162689478117613
474.0,29.162962756911828
475.0,29.163238565288992
476.0,29.163517092585423
477.0,29.16379831376759
478.0,29.164082204732235
479.0,29.164368847567495
480.0,29.164658218820247
481.0,29.164950452699614
482.0,29.165245473753068
483.0,29.165543363801966
484.0,29.165844152344874
485.0,29.166147817496377
486.0,29.166454492191644
487.0,29.166764103456032
488.0,29.167076732761934
489.0,29.167392359407295
490.0,29.167711115318582
491.0,29.168032929403847
492.0,29.168357882837633
493.0,29.168685956036768
494.0,29.16901723001714
495.0,29.169351785200995
496.0,29.169689503156537
497.0,29.170030563961955
498.0,29.17037494883584
499.0,29.17072263974852
500.0,29.171073717216345
501.0,29.17142816368975
502.0,29.17178610808689
503.0,29.17214748441897
504.0,29.172512372836174
505.0,29.172880756700195
506.0,29.173252763921166
507.0,29.173628330024425
508.0,29.17400753476597
509.0,29.174390362346248
510.0,29.174776939659655
511.0,29.175167203651146
512.0,29.175561233652317
513.0,29.175959014629054
514.0,29.176360672450045
515.0,29.176766145384782
516.0,29.177175512308928
517.0,29.177588758879402
518.0,29.178006009928147
519.0,29.178427204953664
520.0,29.17885242234302
521.0,29.179281648369987
522.0,29.17971500681697
523.0,29.180152438316796
524.0,29.18059397534523
525.0,29.181039740887
526.0,29.18148967636349
527.0,29.181943859225
528.0,29.182402321521614
529.0,29.182865050540343
530.0,29.183332123297937
531.0,29.1838035717891
532.0,29.18427942798475
533.0,29.184759679569048
534.0,29.185244402953707
535.0,29.1857336300149
536.0,29.18622739259218
537.0,29.186725678696632
538.0,29.18722856410283
539.0,29.187736080516995
540.0,29.18824821615044
541.0,29.188765046277922
542.0,29.189286602446032
543.0,29.189812916143325
544.0,29.19034397578842
545.0,29.190879855966692
546.0,29.19142058797093
547.0,29.191966160332885
548.0,29.19251664710152
549.0,29.193072079348465
550.0,29.193632488068125
551.0,29.194197861889105
552.0,29.194768274124584
553.0,29.195343755514973
554.0,29.195924294722836
555.0,29.19650996449219
556.0,29.197100795289018
557.0,29.19769681748274
558.0,29.198298019731872
559.0,29.198904474005175
560.0,29.199516168936988
561.0,29.20013321744372
562.0,29.200755566602936
563.0,29.201383246422367
564.0,29.20201636895763
565.0,29.20265488147664
566.0,29.203298854550184
567.0,29.2039482766348
568.0,29.204603217892284
569.0,29.205263707367493
570.0,29.20592977398435
571.0,29.206601406035315
572.0,29.207278672859502
573.0,29.20796156265026
574.0,29.208650184607986
575.0,29.209344486389924
576.0,29.210044496377023
577.0,29.21075028286735
578.0,29.21146187374875
579.0,29.212179296775417
580.0,29.21290253972354
581.0,29.21363167005518
582.0,29.21436671511246
583.0,29.215107662460355
584.0,29.215854578932877
585.0,29.216607491450937
586.0,29.217366387351344
587.0,29.21813133284115
588.0,29.218902354412144
589.0,29.21967943915804
590.0,29.220462652659688
591.0,29.221252020975182
592.0,29.22204753093989
593.0,29.222849247512627
594.0,29.22365715734875
595.0,29.22447136390113
596.0,29.22529177577063
597.0,29.226118534852244
598.0,29.226951588521146
599.0,29.22779100050575
600.0,29.228636756892296
601.0,29.22948892100325
602.0,29.230347517266875
603.0,29.231212531470433
604.0,29.232084026332885
605.0,29.232962025834468
606.0,29.233846515452626
607.0,29.2347375573118
608.0,29.235635136679257
609.0,29.236539353504405
610.0,29.237450116357746
611.0,29.23836756297854
612.0,29.23929163998352
613.0,29.240222370274495
614.0,29.241159814615454
615.0,29.242103995486072
616.0,29.243054935217693
617.0,29.24401261808858
618.0,29.244977066239954
619.0,29.24594833949321
620.0,29.24692645958011
621.0,29.247911448085674
622.0,29.24890328871302
623.0,29.249902002845555
624.0,29.250907687055957
625.0,29.251920249319603
626.0,29.252939823490788
627.0,29.253966355008515
628.0,29.254999902057286
629.0,29.25604044750512
630.0,29.25708801168024
631.0,29.258142689711256
632.0,29.259204426570967
633.0,29.260273242136375
634.0,29.261349193537104
635.0,29.262432300280622
636.0,29.26352254436494
637.0,29.26461998240545
638.0,29.265724596143286
639.0,29.26683644185467
640.0,29.267955538304456
641.0,29.269081866844367
642.0,29.27021544599432
643.0,29.271356368591526
644.0,29.272504541102663
645.0,29.27366009324995
646.0,29.274822931291247
647.0,29.275993184559002
648.0,29.277170796254314
649.0,29.278355783833778
650.0,29.279548201739445
651.0,29.28074806708515
652.0,29.281955359713432
653.0,29.283170096461582
654.0,29.28439233111503
655.0,29.28562208017474
656.0,29.286859322896667
657.0,29.28810411257613
658.0,29.289356428169356
659.0,29.29061632264408
660.0,29.29188377464849
661.0,29.293158836823135
662.0,29.294441487503757
663.0,29.295731779002146
664.0,29.297029689334877
665.0,29.298335270484486
666.0,29.299648500141195
667.0,29.300969429957096
668.0,29.302298037290917
669.0,29.303634373459822
670.0,29.304978415485508
671.0,29.306330214348502
672.0,29.30768974672382
673.0,29.3090570632571
674.0,29.31043214026804
675.0,29.311815028062952
676.0,29.313205702598964
677.0,29.314604213840717
678.0,29.31601053737647
679.0,29.317424722825123
680.0,29.318846745397288
681.0,29.320276617223797
682.0,29.32171438739929
683.0,29.323160030550888
684.0,29.32461359542334
685.0,29.326075093428024
686.0,29.327544461395725
687.0,29.329021821918015
688.0,29.330507074198877
689.0,29.332000303281877
690.0,29.33350151961704
691.0,29.335010696189418
692.0,29.336527843006493
693.0,29.338053007179333
694.0,29.33958619836276
695.0,29.341127351325632
696.0,29.34267654992523
697.0,29.34423380320126
698.0,29.345799082589735
699.0,29.34737239665479
700.0,29.34895379118843
701.0,29.350543236932317
702.0,29.352140779295794
703.0,29.35374638854916
704.0,29.355360072185363
705.0,29.35698187502782
706.0,29.35861176662995
707.0,29.360249791425595
708.0,29.361895918475888
709.0,29.36355015416973
710.0,29.365212542352797
711.0,29.366883051341823
712.0,29.368561686849954
713.0,29.370248492129228
714.0,29.371943434735943
715.0,29.373646557526477
716.0,29.375357827542622
717.0,29.37707724936447
718.0,29.378804865247258
719.0,29.380540641462808
720.0,29.38228458189696
721.0,29.384036728212095
722.0,29.385797045894286
723.0,29.387565538140095
724.0,29.38934224601428
725.0,29.391127134216433
726.0,29.392920205250178
727.0,29.394721499594304
728.0,29.39653098115355
729.0,29.39834869002077
730.0,29.40017455125856
731.0,29.402008642814515
732.0,29.403850965926225
733.0,29.4057014447526
734.0,29.40756015678675
735.0,29.409427064085385
736.0,29.41130220541739
737.0,29.413185542318203
738.0,29.41507707457203
739.0,29.416976801735395
740.0,29.418884761854756
741.0,29.42080091543054
742.0,29.42272526137257
743.0,29.424657837206322
744.0,29.426598602669763
745.0,29.428547556036648
746.0,29.430504695376772
747.0,29.43247005755009
748.0,29.43444356225377
749.0,29.436425324090123
750.0,29.438415223178147
751.0,29.440413334810195
752.0,29.442419577539127
753.0,29.444434065731706
754.0,29.446456678204413
755.0,29.448487489857307
756.0,29.450526418139226
757.0,29.452573537781404
758.0,29.45462884471334
759.0,29.456692255560082
760.0,29.45876384483968
761.0,29.460843568314985
762.0,29.462931421103967
763.0,29.46502739816076
764.0,29.46713153410528
765.0,29.46924378387979
766.0,29.471364141996844
767.0,29.473492602824827
768.0,29.475629160590564
769.0,29.477773849454728
770.0,29.47992658330613
771.0,29.482087436162765
772.0,29.484256361678806
773.0,29.486433393731154
774.0,29.48861844529425
775.0,29.490811590354184
776.0,29.493012741461385
777.0,29.49522197261003
778.0,29.497439236472207
779.0,29.499664526024816
780.0,29.50189787481586
781.0,29.50413919436428
782.0,29.506388558771274
783.0,29.508645920002706
784.0,29.51091127062805
785.0,29.5131846031275
786.0,29.515465909929922
787.0,29.517755183387415
788.0,29.520052456928575
789.0,29.522357640600212
790.0,29.52467080890267
791.0,29.526991871549754
792.0,29.52932090317576
793.0,29.531657854589355
794.0,29.53400271779332
795.0,29.536355484764847
796.0,29.53871618903841
797.0,29.541084739377915
798.0,29.543461169189335
799.0,29.54584551210794
800.0,29.54823767643679
801.0,29.550637737613258
802.0,29.553045645615693
803.0,29.555461350169583
804.0,29.55788492700909
805.0,29.560316325880855
806.0,29.56275553847945
807.0,29.56520255648336
808.0,29.567657371569933
809.0,29.5701199753799
810.0,29.572590359549125
811.0,29.57506851570328
812.0,29.57755443544074
813.0,29.580048110353726
814.0,29.582549532016536
815.0,29.585058691969948
816.0,29.587575624636166
817.0,29.590100235844893
818.0,29.592632559902867
819.0,29.595172588263907
820.0,29.59772031237854
821.0,29.600275766865572
822.0,29.602838856763643
823.0,29.60540961655985
824.0,29.60798803756271
825.0,29.610574111040535
826.0,29.61316782822326
827.0,29.6157691802877
828.0,29.618378158354304
829.0,29.62099475349996
830.0,29.623618956721252
831.0,29.626250758968776
832.0,29.628890151113552
833.0,29.631537123946586
834.0,29.634191624098648
835.0,29.636853730307728
836.0,29.639523389088392
837.0,29.642200546587215
838.0,29.644885281654496
839.0,29.647577495855813
840.0,29.65027722359569
841.0,29.65298445486932
842.0,29.65569917952964
843.0,29.658421387292268
844.0,29.661151067762027
845.0,29.663888210346062
846.0,29.666632804342292
847.0,29.669384793857304
848.0,29.672144257788894
849.0,29.67491109481696
850.0,29.67768533857126
851.0,29.680467022726095
852.0,29.683256045005457
853.0,29.686052393200974
854.0,29.688856145924447
855.0,29.691667245430104
856.0,29.694485633434848
857.0,29.697311342603992
858.0,29.700144359906023
859.0,29.70298467201799
860.0,29.70583226542959
861.0,29.70868708033808
862.0,29.711549194715246
863.0,29.714418502161735
864.0,29.71729503420511
865.0,29.720178776080395
866.0,29.723069712773743
867.0,29.72596778252893
868.0,29.728873016143176
869.0,29.731785397858708
870.0,29.73470491158422
871.0,29.73763154106779
872.0,29.740565222876448
873.0,29.74350603383982
874.0,29.74645386314304
875.0,29.749408693259074
876.0,29.75237060072142
877.0,29.75533947353905
878.0,29.758315340775837
879.0,29.76129818421552
880.0,29.7642879854354
881.0,29.767284678260772
882.0,29.77028829123777
883.0,29.77329880534466
884.0,29.77631615366473
885.0,29.77934036441861
886.0,29.782371418123155
887.0,29.7854092951608
888.0,29.78845397577
889.0,29.791505391995223
890.0,29.7945635718801
891.0,29.797628447168783
892.0,29.800700045938708
893.0,29.803778348147773
894.0,29.806863333728025
895.0,29.80995493402647
896.0,29.813053177540283
897.0,29.816158044231017
898.0,29.81926946550723
899.0,29.822387470246362
900.0,29.82551203886616
901.0,29.82864310285582
902.0,29.83178069185693
903.0,29.83492478685144
904.0,29.838075319755536
905.0,29.841232321145938
906.0,29.84439577279481
907.0,29.84756560728431
908.0,29.850741856370696
909.0,29.853924453195553
910.0,29.8571134304989
911.0,29.860308771865412
912.0,29.863510411472298
913.0,29.86671838354779
914.0,29.86993267314007
915.0,29.87315321559664
916.0,29.87638004689875
917.0,29.879613103366992
918.0,29.88285242218894
919.0,29.886097940546655
920.0,29.889349696928463
921.0,29.892607680101037
922.0,29.89587182867956
923.0,29.899142182972277
924.0,29.902418682539505
925.0,29.9057013689406
926.0,29.908990233461807
927.0,29.912285216901573
928.0,29.915586311188335
929.0,29.91889355987496
930.0,29.922206955862574
931.0,29.92552644082938
932.0,29.92885205928413
933.0,29.932183753092648
934.0,29.935521566912197
935.0,29.93886544228125
936.0,29.94221542367457
937.0,29.945571451800973
938.0,29.948933570411572
939.0,29.952301718765842
940.0,29.955675939118294
941.0,29.959056168682295
942.0,29.962442447331142
943.0,29.965834709277694
944.0,29.969232938740937
945.0,29.97263722291155
946.0,29.976047384422927
947.0,29.979463505195817
948.0,29.982885559192194
949.0,29.986313464302647
950.0,29.98974718658279
951.0,29.993186740843136
952.0,29.996632031126985
953.0,30.000083061784263
954.0,30.003539725226616
955.0,30.007002013183676
956.0,30.010469803799346
957.0,30.013943020127023
958.0,30.01742163001687
959.0,30.020905484830468
960.0,30.024394532295116
961.0,30.027888601843003
962.0,30.031387563726454
963.0,30.034891328855814
964.0,30.03839968598283
965.0,30.041912515790344
966.0,30.045429574247045
967.0,30.048950652945713
968.0,30.052475577997065
969.0,30.056004045957664
970.0,30.059535784976006
971.0,30.063070553071427
972.0,30.06660797355533
973.0,30.07014775055722
974.0,30.073689449308432
975.0,30.077232657536747
976.0,30.08077692852065
977.0,30.084321834526918
978.0,30.08786679864705
979.0,30.091411312924322
980.0,30.094954659722298
981.0,30.098496294988657
982.0,30.10203551480537
983.0,30.10557145132599
984.0,30.109103401561672
985.0,30.11263049255834
986.0,30.116151676456486
987.0,30.11966606062991
988.0,30.12317251451369
989.0,30.126669943096783
990.0,30.130157005109098
991.0,30.133632497468476
992.0,30.13709501651319
993.0,30.140542952664156
994.0,30.143974820078853
995.0,30.147388860552816
996.0,30.1507832605349
997.0,30.15415608984828
998.0,30.15750535087968
999.0,30.16082880414308
1000.0,30.16739931839016
1001.0,30.171091941753915
1002.0,30.17478924000566
1003.0,30.17849113617973
1004.0,30.182197609901024
1005.0,30.185908640820003
1006.0,30.189624208612774
1007.0,30.1933443500578
1008.0,30.19706898795173
1009.0,30.200798102048388
1010.0,30.204531672127803
