T(K),Cp_Thiswork
200.0,33.48578235316204
201.0,33.49307512766852
202.0,33.500509763972715
203.0,33.50808740632404
204.0,33.51580864551556
205.0,33.52367500085902
206.0,33.53168670790241
207.0,33.53984492496716
208.0,33.548150031389696
209.0,33.55660330817743
210.0,33.565205029440236
211.0,33.57395589372845
212.0,33.58285631547786
213.0,33.59190689218582
214.0,33.60110816960601
215.0,33.61046064279632
216.0,33.61996453390414
217.0,33.62962002334422
218.0,33.63942769023536
219.0,33.64938784193931
220.0,33.659500523590594
221.0,33.66976574212965
222.0,33.680184106489605
223.0,33.690755323404844
224.0,33.7014794902553
225.0,33.71235666310101
226.0,33.723386857578475
227.0,33.734570049784395
228.0,33.74590617714657
229.0,33.75739513928252
230.0,33.769036598266666
231.0,33.780830584202825
232.0,33.792776690670586
233.0,33.804874874882515
234.0,33.81712466511167
235.0,33.82952575571696
236.0,33.84207800063783
237.0,33.85478102632943
238.0,33.867634239661385
239.0,33.88063721078239
240.0,33.893789666850495
241.0,33.90709111624165
242.0,33.920541039643
243.0,33.93413870858302
244.0,33.947883916142004
245.0,33.96177588061475
246.0,33.975813978871344
247.0,33.98999774047323
248.0,34.0043263149027
249.0,34.01879918264247
250.0,34.033415796848736
251.0,34.0481750682712
252.0,34.0630765793794
253.0,34.07811971295185
254.0,34.09330332231427
255.0,34.10862675256371
256.0,34.12408932543825
257.0,34.13969017523907
258.0,34.155428582499184
259.0,34.171303318975674
260.0,34.1873139559094
261.0,34.203459394454974
262.0,34.21973884330646
263.0,34.23615117616508
264.0,34.25269572770135
265.0,34.26937149871061
266.0,34.28617747699688
267.0,34.30311279151735
268.0,34.32017624977817
269.0,34.33736710664502
270.0,34.35468429656414
271.0,34.37212689296038
272.0,34.38969365815468
273.0,34.40738379134713
274.0,34.42519603511865
275.0,34.44312956381228
276.0,34.46118324660907
277.0,34.47935594490344
278.0,34.49764665528869
279.0,34.516054363560656
280.0,34.53457776381429
281.0,34.553216106784745
282.0,34.57196793215418
283.0,34.59083247122863
284.0,34.60980825436887
285.0,34.628894495142305
286.0,34.64808998650431
287.0,34.66739338329523
288.0,34.68680387421938
289.0,34.706320104047045
290.0,34.72594098172539
291.0,34.745665541221285
292.0,34.76549228751876
293.0,34.78542037656959
294.0,34.80544856777017
295.0,34.825575746982
296.0,34.84580066927106
297.0,34.866122215148145
298.0,34.8865391365752
299.0,34.907050558637565
300.0,34.9276549795452
301.0,34.948351518373244
302.0,34.969138797768224
303.0,34.99001580843976
304.0,35.010981295480796
305.0,35.03203412548076
306.0,35.05317316402596
307.0,35.0743972759828
308.0,35.095705208213296
309.0,35.11709582712634
310.0,35.13856811531255
311.0,35.16012070657831
312.0,35.18175269982714
313.0,35.20346261903127
314.0,35.22524967756606
315.0,35.24711240586122
316.0,35.26904990394987
317.0,35.29106093421599
318.0,35.31314437431353
319.0,35.335298994021684
320.0,35.35752378678509
321.0,35.37981763727015
322.0,35.40217932480357
323.0,35.42460784908191
324.0,35.44710188990028
325.0,35.469660560161586
326.0,35.492282760082844
327.0,35.514967183548464
328.0,35.53771284625693
329.0,35.56051866164669
330.0,35.58338354726828
331.0,35.6063064249378
332.0,35.629286118837186
333.0,35.65232166295074
334.0,35.67541199275156
335.0,35.69855604854797
336.0,35.721752675822785
337.0,35.7450009258381
338.0,35.76829975416268
339.0,35.79164802354539
340.0,35.81504470194547
341.0,35.83848895703271
342.0,35.86197957165285
343.0,35.885515626747946
344.0,35.909096015977994
345.0,35.93271983104942
346.0,35.956386073159706
347.0,35.980093655633624
348.0,36.00384168704866
349.0,36.027629187270485
350.0,36.05145518255207
351.0,36.075318705607735
352.0,36.09921879568371
353.0,36.12315440750781
354.0,36.147124776292735
355.0,36.17112886968357
356.0,36.195165753698085
357.0,36.219234590470485
358.0,36.24333428074074
359.0,36.26746417769694
360.0,36.29162310853309
361.0,36.31581043781227
362.0,36.34002509657147
363.0,36.36426619972659
364.0,36.3885330417948
365.0,36.41282466368881
366.0,36.43714020063115
367.0,36.46147871011709
368.0,36.48583959686935
369.0,36.51022176300124
370.0,36.53462462545591
371.0,36.55904718684096
372.0,36.58348862628464
373.0,36.60794829550681
374.0,36.63242530387585
375.0,36.65691876971668
376.0,36.68142814617052
377.0,36.70595240272555
378.0,36.73049092442931
379.0,36.755042940093205
380.0,36.77960768598784
381.0,36.80418440583975
382.0,36.82877235082795
383.0,36.85337085853036
384.0,36.877979036762014
385.0,36.90259639484846
386.0,36.92722213374718
387.0,36.95185546320615
388.0,36.97649583349113
389.0,37.00114246882933
390.0,37.0257946787565
391.0,37.05045185645726
392.0,37.07511332522323
393.0,37.09977841569133
394.0,37.1244465411596
395.0,37.149116895904044
396.0,37.173789057557116
397.0,37.19846223524907
398.0,37.223135870130676
399.0,37.247809335538776
400.0,37.27248208552833
401.0,37.29715343366654
402.0,37.32182284772203
403.0,37.346489728750726
404.0,37.37115348488743
405.0,37.395813603423754
406.0,37.42046943389042
407.0,37.44512047702746
408.0,37.4697661681429
409.0,37.49440594946634
410.0,37.51903934087114
411.0,37.543665727030884
412.0,37.56828464095871
413.0,37.5928955514256
414.0,37.6174980036771
415.0,37.64209140969659
416.0,37.66667532760201
417.0,37.69124925216147
418.0,37.71581268473565
419.0,37.74036513323452
420.0,37.764906180341484
421.0,37.78943541426094
422.0,37.81395222530442
423.0,37.83845621473429
424.0,37.862947056570114
425.0,37.88742416086819
426.0,37.9118871464255
427.0,37.93633563736318
428.0,37.96076913019931
429.0,37.9851872609312
430.0,38.00958960476021
431.0,38.03397580874753
432.0,38.05834539391462
433.0,38.08269795347354
434.0,38.10703321692158
435.0,38.13135072303242
436.0,38.15565014679119
437.0,38.17993110357729
438.0,38.20419321451
439.0,38.228436106400416
440.0,38.25265947570879
441.0,38.27686289609842
442.0,38.30104613842674
443.0,38.32520878723591
444.0,38.34935055979245
445.0,38.37347105189632
446.0,38.39757005413057
447.0,38.421647235533854
448.0,38.44570220789232
449.0,38.46973471366568
450.0,38.493744437609905
451.0,38.517731131649704
452.0,38.54169442841788
453.0,38.56563415134056
454.0,38.589549942949375
455.0,38.61344151276157
456.0,38.63730869760683
457.0,38.66115115478148
458.0,38.68496860793416
459.0,38.708760846217785
460.0,38.73252754175688
461.0,38.7562686136542
462.0,38.779983622232656
463.0,38.80367249493304
464.0,38.82733492208582
465.0,38.850970658953514
466.0,38.87457946526698
467.0,38.89816122424858
468.0,38.92171564418139
469.0,38.945242556762665
470.0,38.968741679196796
471.0,38.992212910424925
472.0,39.01565597597612
473.0,39.03907072350456
474.0,39.0624568870994
475.0,39.085814380790495
476.0,39.109143004967535
477.0,39.13244250583209
478.0,39.15571280823022
479.0,39.17895366610166
480.0,39.20216495337944
481.0,39.225346489640216
482.0,39.24849809824843
483.0,39.27161966375831
484.0,39.29471101662256
485.0,39.31777199095919
486.0,39.34080248160377
487.0,39.36380232953243
488.0,39.38677137926835
489.0,39.40970947883707
490.0,39.43261653636884
491.0,39.4554924064426
492.0,39.47833694702304
493.0,39.50115007573697
494.0,39.52393165688056
495.0,39.54668161412613
496.0,39.569399761958884
497.0,39.59208603026928
498.0,39.614740295896034
499.0,39.63736243879573
500.0,39.65995245319749
501.0,39.68251000259562
502.0,39.705035696865004
503.0,39.72752820817673
504.0,39.74998848364628
505.0,39.77241636375176
506.0,39.794811142026596
507.0,39.81717321750527
508.0,39.83950244030781
509.0,39.861798663683416
510.0,39.884061743963684
511.0,39.906292086229286
512.0,39.92848900538138
513.0,39.950652366751996
514.0,39.97278258169956
515.0,39.99488006106533
516.0,40.016943590873495
517.0,40.03897358849933
518.0,40.06096993097074
519.0,40.08293303705338
520.0,40.10486278681013
521.0,40.12675852559474
522.0,40.148620677809596
523.0,40.1704485956166
524.0,40.19224324209547
525.0,40.214003973748994
526.0,40.23573121979778
527.0,40.257423810403274
528.0,40.27908324464359
529.0,40.300708358259556
530.0,40.32229958718975
531.0,40.34385630689427
532.0,40.36537948575517
533.0,40.38686903167546
534.0,40.408323799047096
535.0,40.42974475878257
536.0,40.45113182544941
537.0,40.47248438989705
538.0,40.49380342339629
539.0,40.51508779577202
540.0,40.536338479806915
541.0,40.55755487528898
542.0,40.57873690921019
543.0,40.599885032550915
544.0,40.62099917431374
545.0,40.64207874460207
546.0,40.663124718455855
547.0,40.68413598948561
548.0,40.70511353398454
549.0,40.72605676999268
550.0,40.74696615537818
551.0,40.76784111285512
552.0,40.78868210257825
553.0,40.80948958411673
554.0,40.83026246964758
555.0,40.85100122258904
556.0,40.87170630575167
557.0,40.8923771533988
558.0,40.91301371694368
559.0,40.9336169751571
560.0,40.954185854506434
561.0,40.974720822763345
562.0,40.995221835701926
563.0,41.015689361393676
564.0,41.0361228465632
565.0,41.056522761067995
566.0,41.07688855537501
567.0,41.097220701037784
568.0,41.117519160556704
569.0,41.13778389772222
570.0,41.15801487758988
571.0,41.17821257346103
572.0,41.19837644491065
573.0,41.2185064606461
574.0,41.23860360181183
575.0,41.25866682634816
576.0,41.278696611148376
577.0,41.29869343243676
578.0,41.31865675804802
579.0,41.33858656207262
580.0,41.35848281964651
581.0,41.37834651210713
582.0,41.39817660975534
583.0,41.41797409426217
584.0,41.4377379395835
585.0,41.45746912766343
586.0,41.4771671365303
587.0,41.496831946878316
588.0,41.516464040035494
589.0,41.53606339728621
590.0,41.55563000078732
591.0,41.57516383354853
592.0,41.594664879411425
593.0,41.614133620846545
594.0,41.63356954473879
595.0,41.65297263732151
596.0,41.67234387898466
597.0,41.69168226259479
598.0,41.71098827259047
599.0,41.730262392678014
600.0,41.7495036200627
601.0,41.768712935102826
602.0,41.787890326896395
603.0,41.80703578520698
604.0,41.82614880658189
605.0,41.84522987661951
606.0,41.8642794801717
607.0,41.8832966227813
608.0,41.90228228334841
609.0,41.921236454302864
610.0,41.94015863677526
611.0,41.95904931683696
612.0,41.977908488578464
613.0,41.996736637517
614.0,42.01553277665296
615.0,42.03429788310619
616.0,42.053031462083325
617.0,42.071733999821795
618.0,42.090405492439885
619.0,42.109045447463885
620.0,42.12765484030396
621.0,42.14623317905703
622.0,42.16478046158726
623.0,42.18329717401328
624.0,42.20178282655823
625.0,42.22023790553829
626.0,42.23866240950241
627.0,42.25705633736838
628.0,42.27541968841309
629.0,42.29375294838262
630.0,42.312055630549196
631.0,42.33032773519787
632.0,42.3485697482173
633.0,42.36678215470023
634.0,42.38496398472444
635.0,42.403115724254164
636.0,42.42123785844505
637.0,42.43932990379013
638.0,42.4573918617876
639.0,42.47542470099023
640.0,42.493427455541706
641.0,42.51140061055693
642.0,42.529344167723046
643.0,42.54725861131584
644.0,42.565143460592815
645.0,42.58299919974566
646.0,42.60082534896627
647.0,42.61862239234048
648.0,42.63639033204137
649.0,42.654129170429314
650.0,42.671839390633096
651.0,42.689520514271514
652.0,42.70717254421376
653.0,42.724795963341194
654.0,42.74239077409695
655.0,42.759956979067994
656.0,42.77749458098263
657.0,42.79500406159682
658.0,42.812484465864074
659.0,42.82993723286868
660.0,42.847360929849316
661.0,42.864756994696194
662.0,42.88212495171229
663.0,42.89946480372086
664.0,42.91677655363911
665.0,42.93406020446989
666.0,42.95131623609396
667.0,42.968544650985635
668.0,42.98574545169045
669.0,43.00291816470782
670.0,43.02006374517488
671.0,43.03718124381571
672.0,43.05427209041949
673.0,43.07133486081436
674.0,43.08837098354158
675.0,43.105379510623465
676.0,43.122360919563754
677.0,43.13931568701055
678.0,43.15624286640127
679.0,43.173143408552285
680.0,43.19001731518435
681.0,43.20686411455564
682.0,43.22368428231492
683.0,43.24047782020284
684.0,43.25724472996657
685.0,43.2739854859626
686.0,43.29069961687942
687.0,43.30738712443977
688.0,43.3240484823245
689.0,43.34068369157916
690.0,43.3572927532318
691.0,43.373875668279744
692.0,43.39043243769058
693.0,43.406963533325936
694.0,43.423468484735416
695.0,43.43994776328276
696.0,43.456401369154364
697.0,43.47282930248666
698.0,43.489231563363035
699.0,43.50560862150353
700.0,43.52195953730369
701.0,43.538285719113546
702.0,43.55458622740873
703.0,43.570861530837306
704.0,43.58711162849005
705.0,43.603336519390766
706.0,43.619536202482564
707.0,43.63571114468235
708.0,43.65186134416378
709.0,43.66798633137054
710.0,43.68408657235565
711.0,43.70016253227502
712.0,43.716213274257704
713.0,43.73223973031213
714.0,43.7482414308213
715.0,43.76421883974462
716.0,43.780171953901466
717.0,43.79610077000291
718.0,43.812004818813406
719.0,43.82788502870477
720.0,43.84374139545706
721.0,43.85957344949607
722.0,43.87538118696862
723.0,43.891165533588065
724.0,43.90692555477723
725.0,43.92266171076227
726.0,43.93837446085118
727.0,43.95406333532871
728.0,43.96972879284973
729.0,43.9853703638376
730.0,44.000988969736845
731.0,44.016583677253365
732.0,44.032154943710246
733.0,44.04770322550227
734.0,44.06322805277097
735.0,44.07872988123597
736.0,44.09420870341455
737.0,44.10966404961579
738.0,44.12509683640931
739.0,44.14050659361176
740.0,44.155893313163226
741.0,44.17125698685913
742.0,44.18659852849445
743.0,44.201917006618125
744.0,44.217212873251995
745.0,44.23248611899518
746.0,44.24773673429249
747.0,44.26296516952641
748.0,44.27817095434796
749.0,44.29335499813624
750.0,44.30851637053271
751.0,44.32365506121529
752.0,44.33877243700617
753.0,44.35386710878046
754.0,44.36893998315227
755.0,44.383990589477655
756.0,44.39901983267792
757.0,44.414026783487174
758.0,44.42901188780537
759.0,44.44397559058555
760.0,44.4589169632818
761.0,44.47383736536908
762.0,44.48873586818151
763.0,44.50361291526319
764.0,44.51846849247171
765.0,44.53330258551558
766.0,44.54811517995108
767.0,44.562906717299626
768.0,44.57767672629301
769.0,44.59242564774857
770.0,44.60715346601144
771.0,44.62186016527329
772.0,44.63654618470426
773.0,44.651210597757924
774.0,44.66585429822331
775.0,44.68047726909567
776.0,44.69507949322801
777.0,44.709660953326285
778.0,44.724221178036785
779.0,44.73876105780609
780.0,44.75328057431024
781.0,44.76777925576084
782.0,44.782257537264634
783.0,44.79671540006606
784.0,44.81115237257923
785.0,44.825569341381
786.0,44.83996628670328
787.0,44.85434273654499
788.0,44.86869867148133
789.0,44.8830349753151
790.0,44.89735072418014
791.0,44.911646800805514
792.0,44.9259222818762
793.0,44.940178499910324
794.0,44.95441453154912
795.0,44.968630355862174
796.0,44.9828268522714
797.0,44.9970035483324
798.0,45.011160422111516
799.0,45.0252974515728
800.0,45.03941506397605
801.0,45.05351278720872
802.0,45.06759149689027
803.0,45.081650271656635
804.0,45.095689986072145
805.0,45.10971016776517
806.0,45.12371079324278
807.0,45.13769228688917
808.0,45.15165462437339
809.0,45.16559778124757
810.0,45.17952173295649
811.0,45.193426901961764
812.0,45.207312369019164
813.0,45.22117944998689
814.0,45.23502722561383
815.0,45.24885611708585
816.0,45.26266609853189
817.0,45.27645714401744
818.0,45.29022967309431
819.0,45.30398321353284
820.0,45.317718184250054
821.0,45.3314345582207
822.0,45.34513230827759
823.0,45.35881140718378
824.0,45.37247182754742
825.0,45.38611398605412
826.0,45.399737854467176
827.0,45.413342960694365
828.0,45.42693016394429
829.0,45.44049854839308
830.0,45.454048972154
831.0,45.46758096289489
832.0,45.4810949343419
833.0,45.494590856800265
834.0,45.50806825821057
835.0,45.52152799330075
836.0,45.53496958956253
837.0,45.5483934583946
838.0,45.56179912745763
839.0,45.57518656632517
840.0,45.58855662625009
841.0,45.60190883454687
842.0,45.61524315972905
843.0,45.628559570182986
844.0,45.641858474207595
845.0,45.65513983927646
846.0,45.668403632690655
847.0,45.68164938229179
848.0,45.694877934083955
849.0,45.70808881541392
850.0,45.7212824317494
851.0,45.734458749072374
852.0,45.74761729493645
853.0,45.76075847372998
854.0,45.77388268885285
855.0,45.78698946740884
856.0,45.80007877466546
857.0,45.81315101289711
858.0,45.82620614640409
859.0,45.83924413932758
860.0,45.85226495569268
861.0,45.86526855938603
862.0,45.87825535014314
863.0,45.89122529090013
864.0,45.90417790885134
865.0,45.91711403799263
866.0,45.93003276996408
867.0,45.942934937548216
868.0,45.955820067684364
869.0,45.9686885569167
870.0,45.98154036654417
871.0,45.99437545779327
872.0,46.00719379171535
873.0,46.019995329296734
874.0,46.03278046469316
875.0,46.04554872491504
876.0,46.05830050346664
877.0,46.07103576026816
878.0,46.083754887487174
879.0,46.096456979905255
880.0,46.10914286172186
881.0,46.12181249183432
882.0,46.1344658291819
883.0,46.14710240136857
884.0,46.15972302987437
885.0,46.17232724207188
886.0,46.18491499672743
887.0,46.19748668295176
888.0,46.21004225886408
889.0,46.222581682654614
890.0,46.235104912446005
891.0,46.247611906593505
892.0,46.26010305248292
893.0,46.272577878965585
894.0,46.28503720183656
895.0,46.29748012154681
896.0,46.30990702505443
897.0,46.322318298491155
898.0,46.33471347184939
899.0,46.34709293120219
900.0,46.35945663463015
901.0,46.371804540396425
902.0,46.384136180353345
903.0,46.39645279347077
904.0,46.40875305866359
905.0,46.42103821407679
906.0,46.43330736642197
907.0,46.44556090121798
908.0,46.457799203457185
909.0,46.4700218073835
910.0,46.482228673403384
911.0,46.49442018688569
912.0,46.506596308375734
913.0,46.5187569987916
914.0,46.53090221947472
915.0,46.543032355902525
916.0,46.555146946279166
917.0,46.567246376527386
918.0,46.57933018624158
919.0,46.59139918451061
920.0,46.60345291169757
921.0,46.615491754013114
922.0,46.6275152532547
923.0,46.63952337444352
924.0,46.65151692590386
925.0,46.663495450942165
926.0,46.675458915219494
927.0,46.68740728485207
928.0,46.69934136718109
929.0,46.711260287292845
930.0,46.723164012348576
931.0,46.73505334937343
932.0,46.74692826467626
933.0,46.7587883055447
934.0,46.77063343935676
935.0,46.78246405243784
936.0,46.7942805299393
937.0,46.80608200129014
938.0,46.81786926972316
939.0,46.82964230066523
940.0,46.84140064166306
941.0,46.85314467520732
942.0,46.86487436514826
943.0,46.87658967449002
944.0,46.88829056526856
945.0,46.89997783067558
946.0,46.911650596833766
947.0,46.92330882155374
948.0,46.93495329184357
949.0,46.94658396012828
950.0,46.95819994664784
951.0,46.96980244448949
952.0,46.981390568483704
953.0,46.99296467484181
954.0,47.00452470110626
955.0,47.01607099453307
956.0,47.02760306991236
957.0,47.03912126461605
958.0,47.05062508371431
959.0,47.06211526543673
960.0,47.0735913022386
961.0,47.08505309275276
962.0,47.096500939969
963.0,47.10793472577976
964.0,47.119353911796225
965.0,47.13075918437403
966.0,47.14214998452546
967.0,47.15352615365029
968.0,47.16488834181895
969.0,47.176235133026346
970.0,47.187567559555205
971.0,47.19888499696086
972.0,47.2101876240704
973.0,47.22147478324945
974.0,47.23274620790974
975.0,47.24400242846045
976.0,47.25524231881765
977.0,47.26646636412637
978.0,47.27767379988813
979.0,47.28886465154254
980.0,47.300038508598504
981.0,47.311194523925934
982.0,47.32233304051814
983.0,47.333453146417156
984.0,47.344554707612886
985.0,47.3556367395168
986.0,47.36669903016167
987.0,47.37774091857264
988.0,47.388762104326716
989.0,47.39976102346032
990.0,47.410738087081825
991.0,47.42169162798665
992.0,47.43262113716209
993.0,47.44352564096073
994.0,47.45440450673671
995.0,47.465256227463854
996.0,47.47608003310384
997.0,47.486874273260156
998.0,47.49763842796149
999.0,47.50837068635985
1000.0,47.52099959936503
1001.0,47.53190552311784
1002.0,47.54279836040307
1003.0,47.553677654808084
1004.0,47.56454415412753
1005.0,47.57539740186682
1006.0,47.586237743664114
1007.0,47.5970647237355
1008.0,47.607878687375674
1009.0,47.61867997891529
1010.0,47.629467743413095
1011.0,47.64024272482245
1012.0,47.65100446835541
1013.0,47.66175371630067
1014.0,47.67248961541976
1015.0,47.683212509021956
1016.0,47.69392273945125
1017.0,47.704619852929284
1018.0,47.71530419146255
1019.0,47.72597569904558
1020.0,47.736634319770914
1021.0,47.74728039434287
1022.0,47.75791307375998
1023.0,47.76853349115124
1024.0,47.77914079798187
