T(K),Cp_Thiswork
200.0,29.10567474692381
201.0,29.105730446213613
202.0,29.10578572732863
203.0,29.10584065986145
204.0,29.105895334584858
205.0,29.105949819545412
206.0,29.1060042037091
207.0,29.10605855739482
208.0,29.106112957537967
209.0,29.106167483985885
210.0,29.1062222125808
211.0,29.106277215392243
212.0,29.10633257100213
213.0,29.106388350972193
214.0,29.106444633388158
215.0,29.10650148957085
216.0,29.106558997374258
217.0,29.106617231339133
218.0,29.106676262899278
219.0,29.106736166880115
220.0,29.10679702141543
221.0,29.106858901677114
222.0,29.106921880066572
223.0,29.106986035527477
224.0,29.107051441266208
225.0,29.107118177026567
226.0,29.107186317016314
227.0,29.107255941972245
228.0,29.107327130204467
229.0,29.10739995776222
230.0,29.107474504333652
231.0,29.10755085316602
232.0,29.107629085339966
233.0,29.107709279921117
234.0,29.107791519665398
235.0,29.107875890939816
236.0,29.107962478172066
237.0,29.1080513639882
238.0,29.108142637431115
239.0,29.108236383078093
240.0,29.10833268923509
241.0,29.108431650494573
242.0,29.108533349245896
243.0,29.108637882154852
244.0,29.10874534165126
245.0,29.10885581869598
246.0,29.10896941051567
247.0,29.109086210334326
248.0,29.109206315086816
249.0,29.109329825341913
250.0,29.10945684027849
251.0,29.109587457778197
252.0,29.109721779397212
253.0,29.109859910290158
254.0,29.110001954313596
255.0,29.110148011710073
256.0,29.110298195930874
257.0,29.11045260722541
258.0,29.110611358961336
259.0,29.11077456088963
260.0,29.110942321608086
261.0,29.11111475324857
262.0,29.111291971403773
263.0,29.111474088193837
264.0,29.111661221485846
265.0,29.111853485707694
266.0,29.112050998712995
267.0,29.1122538817101
268.0,29.112462252505743
269.0,29.112676232258714
270.0,29.112895945410447
271.0,29.11312151302441
272.0,29.113353061625087
273.0,29.113590712188483
274.0,29.113834597623033
275.0,29.114084838754046
276.0,29.114341568245123
277.0,29.114604913211107
278.0,29.11487500386672
279.0,29.115151973463043
280.0,29.11543594974726
281.0,29.115727071955067
282.0,29.116025467441432
283.0,29.116331272859114
284.0,29.116644625626108
285.0,29.116965659729367
286.0,29.117294514085373
287.0,29.117631322076576
288.0,29.1179762240305
289.0,29.118329360916057
290.0,29.118690870196364
291.0,29.119060892018133
292.0,29.119439567107733
293.0,29.119827036742866
294.0,29.12022344476974
295.0,29.120628929387
296.0,29.121043637442302
297.0,29.121467708045998
298.0,29.121901288874604
299.0,29.122344521862352
300.0,29.122797549297026
301.0,29.1232605198778
302.0,29.12373357446101
303.0,29.124216862278708
304.0,29.124710524668963
305.0,29.12521471127661
306.0,29.12572956379629
307.0,29.126255230136884
308.0,29.126791858308458
309.0,29.127339590305034
310.0,29.12789857221312
311.0,29.128468954190105
312.0,29.129050878246247
313.0,29.12964449446845
314.0,29.130249944721854
315.0,29.13086737481995
316.0,29.13149693451816
317.0,29.13213876523023
318.0,29.132793014291344
319.0,29.133459824704563
320.0,29.1341393433094
321.0,29.134831714602846
322.0,29.13553708068909
323.0,29.136255587445216
324.0,29.136987376227953
325.0,29.137732592128383
326.0,29.138491375639525
327.0,29.13926387095354
328.0,29.140050219687733
329.0,29.140850558717148
330.0,29.141665032773695
331.0,29.14249378181876
332.0,29.14333694094595
333.0,29.1441946552482
334.0,29.145067056372437
335.0,29.145954285959064
336.0,29.14685647634822
337.0,29.14777376776552
338.0,29.14870629538273
339.0,29.14965418920339
340.0,29.150617584949078
341.0,29.151596617545714
342.0,29.15259141443717
343.0,29.153602111034346
344.0,29.154628835199652
345.0,29.155671713826962
346.0,29.15673087961684
347.0,29.157806455280237
348.0,29.158898569315173
349.0,29.160007346954195
350.0,29.161132912399893
351.0,29.16227538647592
352.0,29.163434895908267
353.0,29.164611557021107
354.0,29.165805489660514
355.0,29.167016814928097
356.0,29.168245650441968
357.0,29.169492110248463
358.0,29.170756312010262
359.0,29.17203836981455
360.0,29.173338391626157
361.0,29.174656493948852
362.0,29.175992787195028
363.0,29.177347375513868
364.0,29.17872037173711
365.0,29.18011188247
366.0,29.181522007913713
367.0,29.182950857108445
368.0,29.184398527554727
369.0,29.18586512570405
370.0,29.187350748930584
371.0,29.18885549317909
372.0,29.190379460935826
373.0,29.19192274541659
374.0,29.193485438374218
375.0,29.19506763552214
376.0,29.19666942850587
377.0,29.19829090755395
378.0,29.199932158693834
379.0,29.20159327203423
380.0,29.203274333506734
381.0,29.204975424756775
382.0,29.206696628752347
383.0,29.208438029880845
384.0,29.21019970824559
385.0,29.211981736629838
386.0,29.213784197949252
387.0,29.215607164907947
388.0,29.217450714615353
389.0,29.219314913740966
390.0,29.221199839421537
391.0,29.223105555242263
392.0,29.225032135431746
393.0,29.22697964358388
394.0,29.22894814169222
395.0,29.230937696454006
396.0,29.232948369973982
397.0,29.234980222846318
398.0,29.237033310925863
399.0,29.239107694959507
400.0,29.24120343100295
401.0,29.243320570297588
402.0,29.245459169125233
403.0,29.24761927229678
404.0,29.24980093980276
405.0,29.252004210001044
406.0,29.25422913658624
407.0,29.256475761581314
408.0,29.25874412888276
409.0,29.261034280884168
410.0,29.26334625847842
411.0,29.26568010106091
412.0,29.268035842937927
413.0,29.270413527680404
414.0,29.272813182993787
415.0,29.275234845909814
416.0,29.277678548387854
417.0,29.28014431717604
418.0,29.28263218496472
419.0,29.28514217550818
420.0,29.2876743186267
421.0,29.290228635099588
422.0,29.29280514801794
423.0,29.295403879028104
424.0,29.29802484833666
425.0,29.300668078685774
426.0,29.30333357951227
427.0,29.306021374710184
428.0,29.3087314707603
429.0,29.311463884764404
430.0,29.314218628425103
431.0,29.31699570789769
432.0,29.319795136194294
433.0,29.32261692085745
434.0,29.325461063812273
435.0,29.328327569770913
436.0,29.331216446398848
437.0,29.334127691457745
438.0,29.337061305613624
439.0,29.34001728820138
440.0,29.34299564166834
441.0,29.34599635386676
442.0,29.349019424589176
443.0,29.352064847924886
444.0,29.35513261667378
445.0,29.358222722354604
446.0,29.361335150580906
447.0,29.364469894905596
448.0,29.36762693835923
449.0,29.370806267329378
450.0,29.37400787173475
451.0,29.37723173560283
452.0,29.38047783207414
453.0,29.383746147419515
454.0,29.387036666848857
455.0,29.390349359709074
456.0,29.39368421378074
457.0,29.397041195930584
458.0,29.4004202867116
459.0,29.40382145551694
460.0,29.407244685793074
461.0,29.41068993441403
462.0,29.414157187794956
463.0,29.417646400375034
464.0,29.42115755132548
465.0,29.424690603154588
466.0,29.428245522474647
467.0,29.431822274830715
468.0,29.435420824712327
469.0,29.439041135561215
470.0,29.442683169785838
471.0,29.446346888767962
472.0,29.45003224734189
473.0,29.453739210332486
474.0,29.45746773050462
475.0,29.461217770777466
476.0,29.46498928188691
477.0,29.468782219176905
478.0,29.47259654278554
479.0,29.4764321947018
480.0,29.480289138976893
481.0,29.484167315603113
482.0,29.488066686946667
483.0,29.491987191045
484.0,29.49592878265483
485.0,29.499891403794603
486.0,29.503875007547578
487.0,29.50787954021008
488.0,29.51190493500434
489.0,29.515951154775212
490.0,29.52001812485718
491.0,29.524105794226735
492.0,29.528214111200157
493.0,29.532343004555408
494.0,29.53649242099223
495.0,29.54066230021663
496.0,29.54485258116797
497.0,29.549063195588076
498.0,29.553294087293615
499.0,29.55754518647704
500.0,29.56181643557491
501.0,29.56610775667633
502.0,29.570419097399334
503.0,29.574750384961007
504.0,29.579101559161533
505.0,29.58347253904777
506.0,29.58786325626743
507.0,29.592273655457902
508.0,29.596703653490096
509.0,29.60115318698476
510.0,29.605622185160165
511.0,29.61011056269054
512.0,29.61461826137011
513.0,29.619145208615542
514.0,29.623691317106285
515.0,29.628256520001138
516.0,29.632840750044856
517.0,29.637443918009573
518.0,29.642065955512273
519.0,29.646706786521776
520.0,29.651366334483757
521.0,29.656044507649604
522.0,29.660741250362975
523.0,29.66545646984123
524.0,29.670190087425304
525.0,29.67494202398508
526.0,29.67971219992216
527.0,29.68450053518575
528.0,29.68930694927436
529.0,29.694131361254684
530.0,29.698973689763733
531.0,29.70383384530716
532.0,29.7087117533344
533.0,29.713607323466068
534.0,29.7185204804373
535.0,29.723451133023374
536.0,29.72839919737562
537.0,29.733364589286285
538.0,29.738347224188637
539.0,29.743347017173857
540.0,29.748363882992816
541.0,29.753397736067527
542.0,29.758448482383365
543.0,29.76351604378129
544.0,29.7686003255566
545.0,29.773701249024867
546.0,29.77881871883298
547.0,29.783952647505277
548.0,29.78910294729829
549.0,29.794269530209846
550.0,29.79945230798298
551.0,29.80465119212115
552.0,29.809866093888783
553.0,29.81509691580883
554.0,29.82034357714567
555.0,29.825605988509615
556.0,29.83088404305378
557.0,29.836177668102984
558.0,29.84148676497834
559.0,29.846811252154794
560.0,29.8521510217644
561.0,29.857505991911626
562.0,29.862876071841157
563.0,29.868261170652055
564.0,29.87366118838958
565.0,29.879076042718197
566.0,29.884505633357367
567.0,29.889949877794344
568.0,29.895408675444628
569.0,29.900881934569277
570.0,29.90636956332967
571.0,29.911871469796345
572.0,29.917387561960766
573.0,29.92291774773404
574.0,29.92846193496507
575.0,29.934020022134803
576.0,29.939591916870388
577.0,29.94517754547863
578.0,29.950776787502097
579.0,29.95638956920335
580.0,29.96201578868837
581.0,29.96765535340261
582.0,29.97330817078372
583.0,29.97897413868308
584.0,29.9846531836279
585.0,29.99034519386629
586.0,29.99605008640075
587.0,30.001767768679255
588.0,30.007498138434634
589.0,30.013241103059645
590.0,30.018996569983933
591.0,30.024764456511022
592.0,30.030544650511864
593.0,30.036337079253464
594.0,30.042141640520622
595.0,30.04795823201769
596.0,30.05378677139572
597.0,30.059627156434154
598.0,30.06547930499891
599.0,30.071343125062526
600.0,30.07721850442387
601.0,30.083105371376032
602.0,30.089003634165593
603.0,30.094913180692593
604.0,30.100833929486935
605.0,30.106765789026447
606.0,30.112708667897536
607.0,30.11866246446542
608.0,30.12462709786108
609.0,30.130602477049074
610.0,30.13658850068651
611.0,30.142585077922604
612.0,30.148592118051006
613.0,30.154609541042266
614.0,30.160637246009543
615.0,30.16667513210344
616.0,30.172723130387325
617.0,30.178781129700887
618.0,30.184849050876355
619.0,30.190926793591892
620.0,30.197014279085877
621.0,30.203111418105806
622.0,30.209218099973278
623.0,30.215334257298323
624.0,30.221459790524865
625.0,30.227594611050087
626.0,30.233738630476232
627.0,30.239891760603108
628.0,30.246053913424852
629.0,30.252224990134707
630.0,30.2584049140813
631.0,30.26459359788722
632.0,30.270790943278747
633.0,30.276996863207128
634.0,30.28321127084705
635.0,30.289434090763557
636.0,30.295665214239307
637.0,30.301904577502878
638.0,30.308152072166404
639.0,30.31440763502048
640.0,30.320671146716386
641.0,30.326942555877714
642.0,30.3332217548422
643.0,30.3395086701475
644.0,30.34580319440467
645.0,30.352105266072787
646.0,30.35841480109916
647.0,30.36473169266395
648.0,30.37105586858898
649.0,30.37738724547313
650.0,30.383725740194674
651.0,30.390071269851802
652.0,30.396423740174697
653.0,30.402783080368465
654.0,30.409149208310183
655.0,30.41552201870367
656.0,30.421901453265512
657.0,30.4282874188825
658.0,30.434679846184725
659.0,30.4410786307112
660.0,30.447483703594216
661.0,30.453894984464878
662.0,30.460312393207616
663.0,30.466735849989146
664.0,30.473165263307827
665.0,30.47960055377083
666.0,30.486041654285028
667.0,30.492488474057616
668.0,30.4989409465652
669.0,30.505398981539212
670.0,30.511862488888983
671.0,30.518331414991874
672.0,30.524805670335354
673.0,30.531285165596294
674.0,30.537769835943337
675.0,30.544259604745974
676.0,30.550754383436406
677.0,30.557254108094376
678.0,30.56375869067086
679.0,30.57026806784643
680.0,30.576782139796336
681.0,30.58330085604374
682.0,30.589824129595208
683.0,30.59635188596708
684.0,30.6028840386119
685.0,30.60942053837448
686.0,30.615961286847675
687.0,30.62250622309582
688.0,30.62905526159512
689.0,30.635608342037997
690.0,30.64216537941568
691.0,30.64872630150621
692.0,30.65529104888962
693.0,30.661859524810772
694.0,30.66843168301482
695.0,30.675007439843387
696.0,30.681586711889153
697.0,30.688169441213123
698.0,30.69475555758069
699.0,30.701344991066208
700.0,30.707937659323328
701.0,30.714533505681416
702.0,30.721132448314506
703.0,30.727734418429215
704.0,30.734339347481573
705.0,30.740947180033743
706.0,30.74755782259762
707.0,30.754171233114953
708.0,30.760787318623365
709.0,30.767406037724147
710.0,30.774027297974463
711.0,30.780651032882094
712.0,30.787277189127757
713.0,30.79390570088322
714.0,30.800536489641214
715.0,30.807169503049494
716.0,30.81380465022052
717.0,30.820441892379215
718.0,30.82708115217849
719.0,30.83372235251668
720.0,30.84036545562676
721.0,30.84701038502134
722.0,30.853657064454563
723.0,30.86030544412673
724.0,30.86695546144828
725.0,30.873607041064904
726.0,30.880260120997804
727.0,30.886914652732113
728.0,30.893570561776624
729.0,30.900227800266045
730.0,30.906886281130937
731.0,30.913545970310803
732.0,30.920206781298425
733.0,30.926868680761796
734.0,30.933531582737178
735.0,30.94019544132803
736.0,30.946860197683108
737.0,30.95352577997989
738.0,30.960192143310735
739.0,30.966859216499802
740.0,30.97352694192049
741.0,30.98019527565174
742.0,30.98686414747035
743.0,30.993533500714477
744.0,31.00020327911755
745.0,31.006873426694945
746.0,31.01354390122154
747.0,31.02021460716693
748.0,31.026885529767444
749.0,31.03355658751395
750.0,31.040227739486433
751.0,31.04689891826684
752.0,31.053570083594323
753.0,31.060241168648638
754.0,31.066912133898192
755.0,31.07358291319575
756.0,31.080253454142238
757.0,31.086923691168565
758.0,31.09359359962638
759.0,31.100263114636803
760.0,31.106932185174138
761.0,31.113600746940755
762.0,31.12026877671027
763.0,31.12693618374601
764.0,31.133602959030675
765.0,31.140269026084017
766.0,31.146934335792167
767.0,31.153598853085278
768.0,31.160262502332788
769.0,31.16692526275491
770.0,31.173587086635557
771.0,31.180247899309236
772.0,31.186907667333877
773.0,31.19356634405314
774.0,31.200223883018175
775.0,31.206880238188162
776.0,31.213535350099022
777.0,31.22018918708993
778.0,31.226841704024665
779.0,31.233492842461587
780.0,31.240142571689923
781.0,31.246790820108682
782.0,31.253437585110056
783.0,31.26008278201092
784.0,31.266726381428494
785.0,31.273368354224345
786.0,31.28000863035934
787.0,31.28664719513855
788.0,31.293283979143062
789.0,31.299918954480752
790.0,31.306552079945753
791.0,31.313183300660363
792.0,31.319812589754875
793.0,31.326439906827694
794.0,31.333065198010736
795.0,31.339688423414085
796.0,31.34630954360138
797.0,31.352928533092104
798.0,31.35954533911234
799.0,31.366159923044314
800.0,31.37277224643005
801.0,31.379382285076904
802.0,31.385989973361163
803.0,31.392595273686997
804.0,31.399198176483132
805.0,31.405798616959704
806.0,31.412396572165555
807.0,31.41899200553198
808.0,31.425584866924012
809.0,31.432175120180453
810.0,31.438762743451996
811.0,31.44534768715141
812.0,31.451929916054638
813.0,31.458509408801316
814.0,31.46508610269806
815.0,31.4716599908703
816.0,31.47823101102535
817.0,31.484799156676047
818.0,31.491364365919395
819.0,31.497926618844083
820.0,31.504485881722967
821.0,31.511042121046156
822.0,31.517595289618583
823.0,31.524145354307496
824.0,31.53069229606232
825.0,31.53723608213256
826.0,31.543776665983167
827.0,31.55031401511915
828.0,31.55684809730112
829.0,31.56337888028468
830.0,31.56990634611951
831.0,31.576430435088504
832.0,31.58295114331126
833.0,31.58946841136931
834.0,31.595982221718536
835.0,31.602492543195986
836.0,31.608999344430785
837.0,31.615502580538834
838.0,31.622002234528324
839.0,31.628498261595244
840.0,31.63499064498037
841.0,31.641479354118186
842.0,31.647964330605504
843.0,31.65444557194933
844.0,31.660923033868965
845.0,31.667396686264766
846.0,31.673866512981057
847.0,31.680332456148022
848.0,31.686794499787087
849.0,31.693252628119954
850.0,31.69970678351108
851.0,31.706156950372606
852.0,31.712603085181314
853.0,31.71904518652883
854.0,31.725483197207254
855.0,31.731917087956354
856.0,31.738346843609374
857.0,31.744772435247828
858.0,31.75119380616112
859.0,31.757610969233326
860.0,31.76402385418848
861.0,31.770432460157302
862.0,31.776836731078433
863.0,31.78323666624249
864.0,31.789632223799728
865.0,31.79602337570707
866.0,31.802410094056782
867.0,31.808792337153584
868.0,31.815170105297398
869.0,31.82154334338547
870.0,31.827912037981033
871.0,31.834276148262685
872.0,31.840635661234515
873.0,31.84699055029303
874.0,31.853340775131766
875.0,31.85968632348444
876.0,31.86602714160311
877.0,31.872363245460217
878.0,31.87869456798554
879.0,31.885021098165456
880.0,31.891342824670566
881.0,31.89765970921907
882.0,31.90397172759243
883.0,31.910278842140144
884.0,31.916581056937275
885.0,31.922878334908944
886.0,31.92917063963486
887.0,31.93545796242468
888.0,31.94174028158895
889.0,31.948017561332524
890.0,31.95428979467183
891.0,31.960556947284907
892.0,31.96681901277848
893.0,31.973075971727695
894.0,31.979327777084464
895.0,31.985574438064063
896.0,31.9918159370961
897.0,31.998052228769954
898.0,32.00428332413712
899.0,32.01050919312861
900.0,32.01672980656492
901.0,32.02294517712083
902.0,32.029155276729576
903.0,32.03536009207051
904.0,32.04155959632865
905.0,32.04775379131693
906.0,32.05394266568146
907.0,32.06012620867154
908.0,32.066304396781184
909.0,32.07247723472346
910.0,32.078644713906655
911.0,32.084806813153776
912.0,32.09096352589036
913.0,32.09711485944211
914.0,32.10326079515227
915.0,32.10940132856365
916.0,32.11553646956308
917.0,32.12166618803683
918.0,32.12779050915693
919.0,32.13390941796423
920.0,32.14002291365834
921.0,32.14613099655779
922.0,32.1522336673012
923.0,32.1583309136608
924.0,32.16442276496403
925.0,32.170509196691924
926.0,32.17659026623831
927.0,32.18266584168643
928.0,32.18873607636891
929.0,32.19480097457054
930.0,32.20086040602604
931.0,32.20691437619837
932.0,32.21296302498971
933.0,32.21900635761157
934.0,32.22504424501389
935.0,32.231076826407374
936.0,32.237103973084174
937.0,32.243125823007205
938.0,32.24914224675298
939.0,32.255153381591526
940.0,32.26115909647964
941.0,32.267159526409856
942.0,32.27315467253338
943.0,32.27914426568775
944.0,32.28512870536063
945.0,32.29110758585466
946.0,32.29708130212526
947.0,32.30304944531499
948.0,32.309012404044786
949.0,32.3149697650388
950.0,32.320921778025934
951.0,32.32686842209935
952.0,32.33280953992174
953.0,32.33874510353827
954.0,32.34467521273057
955.0,32.350599829155044
956.0,32.35651864450743
957.0,32.36243200729656
958.0,32.36833946498082
959.0,32.37424121909703
960.0,32.380137200109765
961.0,32.38602719845551
962.0,32.39191112737433
963.0,32.39778889204142
964.0,32.40366064914651
965.0,32.40952588879871
966.0,32.415384746320846
967.0,32.42123695132234
968.0,32.427082482068414
969.0,32.43292104203069
970.0,32.43875244996231
971.0,32.44457664032026
972.0,32.45039326965705
973.0,32.45620210779915
974.0,32.46200303549654
975.0,32.46779565352611
976.0,32.473579671357626
977.0,32.4793549076915
978.0,32.48512089588861
979.0,32.49087740451871
980.0,32.49662391746512
981.0,32.502360019558125
982.0,32.50808526638794
983.0,32.51379931176606
984.0,32.51950151855456
985.0,32.52519134505262
986.0,32.530868340190146
987.0,32.53653175914499
988.0,32.54218094495564
989.0,32.54781532564909
990.0,32.55343403019595
991.0,32.559036268121304
992.0,32.564621199555255
993.0,32.57018806162002
994.0,32.57573578159618
995.0,32.58126335787834
996.0,32.58676972958161
997.0,32.592253900652125
998.0,32.59771455484461
999.0,32.60315043508528
1000.0,32.610392482184444
1001.0,32.61603759157324
1002.0,32.62167640834622
1003.0,32.62730880443124
1004.0,32.632934904706985
1005.0,32.638554455478385
1006.0,32.64416770776509
1007.0,32.64977453429587
1008.0,32.65537493402275
1009.0,32.6609690314049
1010.0,32.66655669977405
1011.0,32.6721378130987
1012.0,32.677712621024746
