T(K),Cp_Thiswork
200.0,30.442845769978373
201.0,30.432257910915876
202.0,30.42179365024477
203.0,30.41145173089771
204.0,30.40123082568565
205.0,30.391129672355653
206.0,30.38114707227291
207.0,30.37128180169369
208.0,30.36153265638
209.0,30.351898494710245
210.0,30.34237810745143
211.0,30.332970390973387
212.0,30.32367425972295
213.0,30.31448864609758
214.0,30.305412416335876
215.0,30.29644453977619
216.0,30.287584044778413
217.0,30.27882985230581
218.0,30.270180984491123
219.0,30.261636521284707
220.0,30.253195477437586
221.0,30.244856885325788
222.0,30.236619915013126
223.0,30.22848359159382
224.0,30.22044711662449
225.0,30.212509548176357
226.0,30.2046700793721
227.0,30.196927879009756
228.0,30.18928213121089
229.0,30.18173203521487
230.0,30.174276881676136
231.0,30.166915822039144
232.0,30.159648137449036
233.0,30.152473122435822
234.0,30.145390047345273
235.0,30.138398196374595
236.0,30.131496941210997
237.0,30.124685518375138
238.0,30.117963325304785
239.0,30.11132973441493
240.0,30.10478409396571
241.0,30.098325764769733
242.0,30.091954191264584
243.0,30.085668722010013
244.0,30.079468823990084
245.0,30.073353939186212
246.0,30.067323485409688
247.0,30.061376926341545
248.0,30.055513701479043
249.0,30.04973336376747
250.0,30.044035338328307
251.0,30.038419162916547
252.0,30.03288431667802
253.0,30.02743035557381
254.0,30.022056777350556
255.0,30.016763155378904
256.0,30.01154903803069
257.0,30.006413949458544
258.0,30.001357487680735
259.0,29.996379257972713
260.0,29.991478776505573
261.0,29.9866556960985
262.0,29.981909580469893
263.0,29.97724009586115
264.0,29.97264678886545
265.0,29.968129370125016
266.0,29.963687276280027
267.0,29.95932047794758
268.0,29.955028393596557
269.0,29.950810726645123
270.0,29.946667185127673
271.0,29.942597181016293
272.0,29.938600735191148
273.0,29.934677568632665
274.0,29.930826815790184
275.0,29.927048803074157
276.0,29.923342971274543
277.0,29.919708771640867
278.0,29.916146242529194
279.0,29.912655132047792
280.0,29.90923490640916
281.0,29.90588532496222
282.0,29.902606149933064
283.0,29.899397426421757
284.0,29.89625836018515
285.0,29.89318900313334
286.0,29.89018885258576
287.0,29.887257961857056
288.0,29.8843961079733
289.0,29.881602529136245
290.0,29.878877553656405
291.0,29.876220697139225
292.0,29.87363174895534
293.0,29.871110235894992
294.0,29.868656217772404
295.0,29.86626948852866
296.0,29.863949843453966
297.0,29.861696562882777
298.0,29.85950996676446
299.0,29.857389598746806
300.0,29.85533526305155
301.0,29.853347016929664
302.0,29.85142416050102
303.0,29.84956650478157
304.0,29.847774356946793
305.0,29.846047027811874
306.0,29.84438457493337
307.0,29.8427865635934
308.0,29.841252807180023
309.0,29.83978336000809
310.0,29.838377792468123
311.0,29.837035918578223
312.0,29.835757552440654
313.0,29.834542508186658
314.0,29.83339036616828
315.0,29.83230140928188
316.0,29.83127498526334
317.0,29.83031114157097
318.0,29.829409691687413
319.0,29.828570221783437
320.0,29.827792548720776
321.0,29.827076713378183
322.0,29.82642230476071
323.0,29.825829360258297
324.0,29.825297250014202
325.0,29.824826230901653
326.0,29.824415895063648
327.0,29.824066055846465
328.0,29.82377652595435
329.0,29.82354690322434
330.0,29.823377428625683
331.0,29.823267485606898
332.0,29.82321709820087
333.0,29.823226075472007
334.0,29.823294017647136
335.0,29.823420942640585
336.0,29.823606451418733
337.0,29.823850557745494
338.0,29.824152863226338
339.0,29.824513377434478
340.0,29.824931702524097
341.0,29.825407843845472
342.0,29.82594120546695
343.0,29.826531989358532
344.0,29.827179798520454
345.0,29.827884629775717
346.0,29.828645892489394
347.0,29.82946377544601
348.0,29.830337690524956
349.0,29.831267819944888
350.0,29.832253578028087
351.0,29.833295140459636
352.0,29.83439192394199
353.0,29.83554409766596
354.0,29.83675108065814
355.0,29.838012851644322
356.0,29.83932920103431
357.0,29.840699918203406
358.0,29.842124610684927
359.0,29.84360324871446
360.0,29.845135618559173
361.0,29.846721505465432
362.0,29.84836051704817
363.0,29.850052615206053
364.0,29.851797582132562
365.0,29.853595025498258
366.0,29.855444901067266
367.0,29.857346816548436
368.0,29.85930072367838
369.0,29.861306399703373
370.0,29.86336345242217
371.0,29.865471827648854
372.0,29.867631133258797
373.0,29.86984131119135
374.0,29.872101969420758
375.0,29.874413046078516
376.0,29.87677414926342
377.0,29.87918521336931
378.0,29.88164584664815
379.0,29.884155979828865
380.0,29.88671522135065
381.0,29.889323498351025
382.0,29.891980419491162
383.0,29.894685752372304
384.0,29.897439418885686
385.0,29.90024118227081
386.0,29.90309065174781
387.0,29.90598759179592
388.0,29.90893191760205
389.0,29.911923238908695
390.0,29.9149614676759
391.0,29.918046214056005
392.0,29.921177238975794
393.0,29.924354449705344
394.0,29.927577603230624
395.0,29.930846310666716
396.0,29.93416033040439
397.0,29.937519563774988
398.0,29.940923622740325
399.0,29.944372405794134
400.0,29.947865666513707
401.0,29.951402877694104
402.0,29.954984214866478
403.0,29.95860915069543
404.0,29.96227743933763
405.0,29.965988971310175
406.0,29.96974349741525
407.0,29.973540632885417
408.0,29.977380264556757
409.0,29.98126200853531
410.0,29.985185749311007
411.0,29.989151103920154
412.0,29.99315808575628
413.0,29.99720604972743
414.0,30.00129513744045
415.0,30.00542483680617
416.0,30.009595025825277
417.0,30.01380545191592
418.0,30.018055735818862
419.0,30.022345752590553
420.0,30.026675249103043
421.0,30.031043972086188
422.0,30.0354515447044
423.0,30.039897961090155
424.0,30.04438272150922
425.0,30.0489056957304
426.0,30.05346663002439
427.0,30.05806527062553
428.0,30.06270136374829
429.0,30.067374537324994
430.0,30.072084774859853
431.0,30.076831703605805
432.0,30.08161506986658
433.0,30.08643462001217
434.0,30.091289985784883
435.0,30.096181257854248
436.0,30.10110783876157
437.0,30.106069590006957
438.0,30.11106637044694
439.0,30.116097702659744
440.0,30.121163557081218
441.0,30.126263679143577
442.0,30.13139759613704
443.0,30.136565275041235
444.0,30.141766354164773
445.0,30.147000689115764
446.0,30.152267920089493
447.0,30.157567796084265
448.0,30.162900171598466
449.0,30.168264689741278
450.0,30.1736612043659
451.0,30.179089463836746
452.0,30.184549114285787
453.0,30.19003990676417
454.0,30.195561694048976
455.0,30.201114226086865
456.0,30.206697253256706
457.0,30.21231052638662
458.0,30.217953697932906
459.0,30.223626619728215
460.0,30.229329044013923
461.0,30.235060626539557
462.0,30.24082131514792
463.0,30.246610766015014
464.0,30.252428638281557
465.0,30.258274877761256
466.0,30.264149050121414
467.0,30.270051099917843
468.0,30.275980689157915
469.0,30.281937575019366
470.0,30.287921515290726
471.0,30.29393226837776
472.0,30.2999696837961
473.0,30.306033429594414
474.0,30.31212326610741
475.0,30.31823904310547
476.0,30.32438043235593
477.0,30.33054719621766
478.0,30.33673918483307
479.0,30.342956073751395
480.0,30.349197713432567
481.0,30.355463867420738
482.0,30.361754215120634
483.0,30.36806860755798
484.0,30.374406810540528
485.0,30.380768507372707
486.0,30.387153549760505
487.0,30.393561705850484
488.0,30.399992744586697
489.0,30.406446435719175
490.0,30.412922469173772
491.0,30.41942077813774
492.0,30.425941053666236
493.0,30.43248298972002
494.0,30.43904651889516
495.0,30.445631336335666
496.0,30.452237217647905
497.0,30.458864016375284
498.0,30.465511355220627
499.0,30.472179166050566
500.0,30.4788671509082
501.0,30.485575164887244
502.0,30.4923029128151
503.0,30.499050176497907
504.0,30.5058168122847
505.0,30.512602602359262
506.0,30.51940725715968
507.0,30.526230634368723
508.0,30.533072447240734
509.0,30.539932625655126
510.0,30.54681074268552
511.0,30.553706799976304
512.0,30.560620515053273
513.0,30.5675516082574
514.0,30.574500009610993
515.0,30.581465372424287
516.0,30.588447558783137
517.0,30.595446429946247
518.0,30.602461644866708
519.0,30.609493133939253
520.0,30.616540559874373
521.0,30.623603853271643
522.0,30.630682811409088
523.0,30.637777102609274
524.0,30.644886657850535
525.0,30.652011277433097
526.0,30.659150635270862
527.0,30.666304726059167
528.0,30.67347316331004
529.0,30.680655941206123
530.0,30.687852739831293
531.0,30.69506336683357
532.0,30.702287692061468
533.0,30.70952552396159
534.0,30.716776672001558
535.0,30.724040946680194
536.0,30.73131809994375
537.0,30.73860806390468
538.0,30.74591053338758
539.0,30.75322538257289
540.0,30.760552485102114
541.0,30.76789154125281
542.0,30.775242484334804
543.0,30.7826050750866
544.0,30.78997913326545
545.0,30.797364479665816
546.0,30.8047609918051
547.0,30.812168436080892
548.0,30.819586636373316
549.0,30.827015472169712
550.0,30.834454714080927
551.0,30.841904242914318
552.0,30.849363832083743
553.0,30.856833363716625
554.0,30.864312666761837
555.0,30.871801518815428
556.0,30.87929980399188
557.0,30.88680735433011
558.0,30.894324002892105
559.0,30.9018495837664
560.0,30.909383881429115
561.0,30.916926833624643
562.0,30.92447817657843
563.0,30.932037848688402
564.0,30.93960558958436
565.0,30.94718133832127
566.0,30.954764886504265
567.0,30.96235607634025
568.0,30.96995479897395
569.0,30.977560850037825
570.0,30.985174074754866
571.0,30.992794319343947
572.0,31.000421477645382
573.0,31.008055396898456
574.0,31.01569587936706
575.0,31.023342820905057
576.0,31.030996026395286
577.0,31.03865539303302
578.0,31.046320773021918
579.0,31.05399197513048
580.0,31.061668898564488
581.0,31.069351398462686
582.0,31.077039330949628
583.0,31.08473255311172
584.0,31.09243092301403
585.0,31.10013429967366
586.0,31.10784254308467
587.0,31.11555551419142
588.0,31.12327307489545
589.0,31.130995088050952
590.0,31.138721458597693
591.0,31.146452009573323
592.0,31.15418660666703
593.0,31.161925156794815
594.0,31.16966748667908
595.0,31.177413464819786
596.0,31.185163000092558
597.0,31.19291596202072
598.0,31.200672182163153
599.0,31.208431571342473
600.0,31.216193963509966
601.0,31.223959270770283
602.0,31.231727367257264
603.0,31.239498090460216
604.0,31.247271391697446
605.0,31.255047072978655
606.0,31.262825086385
607.0,31.270605236759305
608.0,31.278387440683545
609.0,31.28617157858497
610.0,31.29395756752733
611.0,31.301745217975252
612.0,31.3095344842499
613.0,31.317325214570182
614.0,31.325117293768756
615.0,31.332910642049498
616.0,31.340705110987464
617.0,31.348500588021793
618.0,31.3562969952177
619.0,31.364094187460896
620.0,31.37189205475342
621.0,31.379690554066165
622.0,31.38748947719521
623.0,31.39528881516882
624.0,31.40308839523716
625.0,31.410888143747574
626.0,31.418687955056708
627.0,31.42648769267319
628.0,31.434287284746183
629.0,31.442086628129637
630.0,31.44988565149341
631.0,31.457684191093463
632.0,31.465482177466065
633.0,31.473279510732496
634.0,31.48107609182159
635.0,31.488871822472078
636.0,31.496666634939032
637.0,31.504460402423923
638.0,31.512253029070983
639.0,31.52004441981362
640.0,31.527834509253687
641.0,31.535623174612372
642.0,31.543410323183704
643.0,31.551195891314688
644.0,31.558979787249253
645.0,31.5667618642914
646.0,31.574542116436003
647.0,31.582320398728527
648.0,31.590096650370615
649.0,31.597870756407882
650.0,31.60564268405272
651.0,31.61341229298198
652.0,31.621179524661034
653.0,31.628944267925704
654.0,31.636706491465333
655.0,31.644466059501784
656.0,31.65222294146549
657.0,31.65997700378974
658.0,31.667728216660187
659.0,31.675476448708608
660.0,31.68322167085175
661.0,31.69096377874836
662.0,31.698702694178948
663.0,31.706438364116877
664.0,31.714170662619345
665.0,31.721899562417978
666.0,31.72962498762743
667.0,31.737346839266948
668.0,31.745065043377494
669.0,31.75277952669944
670.0,31.76049026328299
671.0,31.768197110839367
672.0,31.775900067603075
673.0,31.78359901648195
674.0,31.791293887656607
675.0,31.798984656970347
676.0,31.806671210346877
677.0,31.814353502165673
678.0,31.822031442825125
679.0,31.829705009571292
680.0,31.83737409226954
681.0,31.84503866889517
682.0,31.852698631233437
683.0,31.860353936697987
684.0,31.8680045427394
685.0,31.875650344006015
686.0,31.883291299388816
687.0,31.890927367814268
688.0,31.89855846723651
689.0,31.906184537207235
690.0,31.913805517882142
691.0,31.921421370130645
692.0,31.929032014978453
693.0,31.93663739444245
694.0,31.94423747080556
695.0,31.951832167347014
696.0,31.959421447287887
697.0,31.96700523539208
698.0,31.974583495771952
699.0,31.98215615465486
700.0,31.98972317707303
701.0,31.997284509381473
702.0,32.00484007994657
703.0,32.01238985511437
704.0,32.01993378298681
705.0,32.02747179399246
706.0,32.035003873874075
707.0,32.042529936119806
708.0,32.05004994922017
709.0,32.057563864064235
710.0,32.06507163203601
711.0,32.072573205053686
712.0,32.080068535599594
713.0,32.08755757666331
714.0,32.09504028175264
715.0,32.10251662190481
716.0,32.10998651756094
717.0,32.11744995764313
718.0,32.12490688071624
719.0,32.13235724285691
720.0,32.13980101701541
721.0,32.1472381436136
722.0,32.154668580173194
723.0,32.1620923007881
724.0,32.16950924765449
725.0,32.176919395581365
726.0,32.18432268792059
727.0,32.191719100211245
728.0,32.19910857694697
729.0,32.20649109435471
730.0,32.21386659803913
731.0,32.22123506494441
732.0,32.228596456864096
733.0,32.235950736102396
734.0,32.243297850390434
735.0,32.25063777800294
736.0,32.257970482494336
737.0,32.26529592784499
738.0,32.27261407844617
739.0,32.2799248990748
740.0,32.28722835498722
741.0,32.294524397491344
742.0,32.3018130212673
743.0,32.30909417832633
744.0,32.316367835510384
745.0,32.32363396000264
746.0,32.330892519384655
747.0,32.33814348160311
748.0,32.345386828635846
749.0,32.352622515393946
750.0,32.35985051095416
751.0,32.36707078475165
752.0,32.37428331992377
753.0,32.381488073151964
754.0,32.38868502810886
755.0,32.395874142406896
756.0,32.40305538724265
757.0,32.410228747130944
758.0,32.41739419374994
759.0,32.42455168640917
760.0,32.4317011977311
761.0,32.43884271322601
762.0,32.44597620599192
763.0,32.45310164942477
764.0,32.46021900488127
765.0,32.467328258938565
766.0,32.47442938600395
767.0,32.48152234866092
768.0,32.4886071463028
769.0,32.49568373013972
770.0,32.50275208794541
771.0,32.509812195799995
772.0,32.516864030006474
773.0,32.5239075672644
774.0,32.530942784519645
775.0,32.53796965910618
776.0,32.54498816862247
777.0,32.55199829098611
778.0,32.55900000450644
779.0,32.56599329897293
780.0,32.57297813065222
781.0,32.579954501249105
782.0,32.586922378959315
783.0,32.593881754685704
784.0,32.600832586387256
785.0,32.60777487652783
786.0,32.61470859480981
787.0,32.62163373316988
788.0,32.62855026198851
789.0,32.63545816301785
790.0,32.64235742886015
791.0,32.64924803113816
792.0,32.65612996296714
793.0,32.66300320715462
794.0,32.66986773637096
795.0,32.676723534214474
796.0,32.683570605180456
797.0,32.69040890239623
798.0,32.6972384411811
799.0,32.70405918573006
800.0,32.710871131336305
801.0,32.71767426330427
802.0,32.72446855725818
803.0,32.73125401929256
804.0,32.73803061566757
805.0,32.74479834298865
806.0,32.75155718823589
807.0,32.758307138604856
808.0,32.765048171960686
809.0,32.7717802957057
810.0,32.77850348827796
811.0,32.785217728601665
812.0,32.79192302470312
813.0,32.79861935617844
814.0,32.805306712547214
815.0,32.81198508353194
816.0,32.818654459330396
817.0,32.82531483965161
818.0,32.83196619659063
819.0,32.838608539816335
820.0,32.845241851388195
821.0,32.85186613222436
822.0,32.858481355899485
823.0,32.8650875330011
824.0,32.87168465608694
825.0,32.878272699850854
826.0,32.88485168467905
827.0,32.89142157693102
828.0,32.89798238839224
829.0,32.90453411302791
830.0,32.91107673631299
831.0,32.917610252855006
832.0,32.92413466638532
833.0,32.93064997212109
834.0,32.93715615657838
835.0,32.94365322432389
836.0,32.95014117118166
837.0,32.95661998472062
838.0,32.963089670106896
839.0,32.969550215344995
840.0,32.976001634547615
841.0,32.98244390770472
842.0,32.98887704070444
843.0,32.99530102270005
844.0,33.001715868391955
845.0,33.00812155879463
846.0,33.014518109009884
847.0,33.02090550050435
848.0,33.027283740259065
849.0,33.033652826958516
850.0,33.040012759284906
851.0,33.046363536404115
852.0,33.052705157339574
853.0,33.059037629572856
854.0,33.0653609360285
855.0,33.071675084413265
856.0,33.07798008242507
857.0,33.08427591334481
858.0,33.0905625932586
859.0,33.09684011382817
860.0,33.10310847480428
861.0,33.10936767614395
862.0,33.11561772582687
863.0,33.12185861561005
864.0,33.12809034555394
865.0,33.134312923531596
866.0,33.14052634151919
867.0,33.14673059942297
868.0,33.15292569711836
869.0,33.15911164240008
870.0,33.165288434905015
871.0,33.17145606652861
872.0,33.17761453696584
873.0,33.18376385349211
874.0,33.18990400786381
875.0,33.19603500726947
876.0,33.20215685084029
877.0,33.20826953009146
878.0,33.214373043922166
879.0,33.22046740683848
880.0,33.22655260201269
881.0,33.232628628173174
882.0,33.238695491511024
883.0,33.24475319032381
884.0,33.25080172288047
885.0,33.25684107937498
886.0,33.26287127333572
887.0,33.268892286849756
888.0,33.27490411775405
889.0,33.2809067788462
890.0,33.28690025955741
891.0,33.292884549596984
892.0,33.29885965364573
893.0,33.304825568641434
894.0,33.310782291312435
895.0,33.31672981855935
896.0,33.322668146860444
897.0,33.32859727290062
898.0,33.33451719295949
899.0,33.340427903802876
900.0,33.346329409236986
901.0,33.352221690662226
902.0,33.358104751947025
903.0,33.36397858982686
904.0,33.36984320818412
905.0,33.37569858881637
906.0,33.3815447434233
907.0,33.38738166153631
908.0,33.39320934788511
909.0,33.3990277846946
910.0,33.4048369844825
911.0,33.41063693793563
912.0,33.416427643283356
913.0,33.42220909921803
914.0,33.4279813122109
915.0,33.43374427428158
916.0,33.43949799349319
917.0,33.44524246264364
918.0,33.45097768277561
919.0,33.4567036637343
920.0,33.46242040069674
921.0,33.468127904423426
922.0,33.4738261717119
923.0,33.479515215405904
924.0,33.48519503397248
925.0,33.49086563461466
926.0,33.49652703286734
927.0,33.50217923812598
928.0,33.50782226069644
929.0,33.51345610468274
930.0,33.51908078299813
931.0,33.52469631730382
932.0,33.530302723310214
933.0,33.53590001784892
934.0,33.541488211749346
935.0,33.547067332484794
936.0,33.55263739407809
937.0,33.55819843424156
938.0,33.56375046271446
939.0,33.569293512776504
940.0,33.57482761261956
941.0,33.580352783469564
942.0,33.58586907191401
943.0,33.591376494545926
944.0,33.59687509351433
945.0,33.60236490414479
946.0,33.60784596348919
947.0,33.61331830233511
948.0,33.61878197538417
949.0,33.62423701617522
950.0,33.62968345905542
951.0,33.635121362398934
952.0,33.640550762344745
953.0,33.64597169581853
954.0,33.65138422292766
955.0,33.65678838111782
956.0,33.66218421540812
957.0,33.667571763484034
958.0,33.67295108496315
959.0,33.67832222251121
960.0,33.683685202587625
961.0,33.68904007349274
962.0,33.694386880302346
963.0,33.69972564316316
964.0,33.705056409204644
965.0,33.71037920575448
966.0,33.71569404125741
967.0,33.72100094900637
968.0,33.72629992535768
969.0,33.73159099840175
970.0,33.73687414179935
971.0,33.74214935993862
972.0,33.74741662315751
973.0,33.752675906866884
974.0,33.75792715040275
975.0,33.76317031911985
976.0,33.76840531602415
977.0,33.77363206727379
978.0,33.77885046508723
979.0,33.784060365713906
980.0,33.78926164389918
981.0,33.79445411094103
982.0,33.799637568387965
983.0,33.80481179770577
984.0,33.80997653346642
985.0,33.81513149436892
986.0,33.82027634774856
987.0,33.825410737376515
988.0,33.83053425085424
989.0,33.83564644635622
990.0,33.840746826537654
991.0,33.84583483392298
992.0,33.85090987108314
993.0,33.85597127588609
994.0,33.86101831009452
995.0,33.86605018695059
996.0,33.87106603693352
997.0,33.876064903830894
998.0,33.881045765812296
999.0,33.88600750212706
1000.0,33.89116248715688
1001.0,33.89617382148469
1002.0,33.901176787775704
1003.0,33.906171397266235
1004.0,33.911157652811674
1005.0,33.9161355824569
1006.0,33.92110518067334
1007.0,33.92606647561046
1008.0,33.93101946169658
1009.0,33.93596415869554
1010.0,33.94090056944249
1011.0,33.945828722295836
1012.0,33.950748620138334
1013.0,33.95566027435693
1014.0,33.96056368776533
1015.0,33.96545888893144
