T(K),Cp_Thiswork
200.0,30.51136699778162
201.0,30.501919080101246
202.0,30.49254853687924
203.0,30.483255263647436
204.0,30.4740389373048
205.0,30.464899217801694
206.0,30.455835749149315
207.0,30.446848494179026
208.0,30.43793671635911
209.0,30.42910033431
210.0,30.42033875871865
211.0,30.411651705874963
212.0,30.40303857432546
213.0,30.394499194433664
214.0,30.386032943407315
215.0,30.377639474333687
216.0,30.369318158134934
217.0,30.36106862728863
218.0,30.35289049398588
219.0,30.34478299381864
220.0,30.3367459648982
221.0,30.328778638638603
222.0,30.320880597550367
223.0,30.313051302426494
224.0,30.30529031446133
225.0,30.297596882455302
226.0,30.28997076032907
227.0,30.282411291330405
228.0,30.27491783059007
229.0,30.267490007116933
230.0,30.260127173386593
231.0,30.252828857536677
232.0,30.24559441946262
233.0,30.23842338397623
234.0,30.231315266721463
235.0,30.22426936123415
236.0,30.21728525836502
237.0,30.21036233242073
238.0,30.20350009772475
239.0,30.196698000222845
240.0,30.189955488853894
241.0,30.183272015685027
242.0,30.176647036036158
243.0,30.17008006104167
244.0,30.16357049613829
245.0,30.15711785539917
246.0,30.150721602186827
247.0,30.14438115973963
248.0,30.13809608970668
249.0,30.131865821507432
250.0,30.125689834890927
251.0,30.119567650284832
252.0,30.11349871587616
253.0,30.107482590017753
254.0,30.10151869712807
255.0,30.09560656822935
256.0,30.089745704356368
257.0,30.083935611182575
258.0,30.078175823410433
259.0,30.07246582846652
260.0,30.066805167323935
261.0,30.06119334010377
262.0,30.055629894172185
263.0,30.0501143589428
264.0,30.044646268653082
265.0,30.039225176238226
266.0,30.033850596377484
267.0,30.028522104130925
268.0,30.023239239053865
269.0,30.018001567835576
270.0,30.0128086422761
271.0,30.007660041981325
272.0,30.00255532233333
273.0,29.997494063927228
274.0,29.992475844844904
275.0,29.987500247860158
276.0,29.98256686040311
277.0,29.97767527350641
278.0,29.97282508263818
279.0,29.96801588586282
280.0,29.96324728999508
281.0,29.958518900052134
282.0,29.95383032769763
283.0,29.949181196322037
284.0,29.944571113045846
285.0,29.939999718276482
286.0,29.935466624047415
287.0,29.930971472257614
288.0,29.92651390088524
289.0,29.92209353939967
290.0,29.917710045218847
291.0,29.91336306892329
292.0,29.909052249936735
293.0,29.904777244569573
294.0,29.90053773007655
295.0,29.896333338012766
296.0,29.892163771280998
297.0,29.888028685433262
298.0,29.883927756782516
299.0,29.879860644965255
300.0,29.875827074400544
301.0,29.87182669111987
302.0,29.867859207257155
303.0,29.863924294838984
304.0,29.86002167477091
305.0,29.8561510496394
306.0,29.852312100461333
307.0,29.848504535113225
308.0,29.84472809136777
309.0,29.840982432096943
310.0,29.837267328961715
311.0,29.83358247747161
312.0,29.829927602868274
313.0,29.82630243375264
314.0,29.822706702045657
315.0,29.81914011281357
316.0,29.815602433642127
317.0,29.812093437339442
318.0,29.80861277538873
319.0,29.805160289147054
320.0,29.801735666048856
321.0,29.79833865889765
322.0,29.794969056995768
323.0,29.79162658672881
324.0,29.78831101002521
325.0,29.785022126467034
326.0,29.781759670045908
327.0,29.778523411510967
328.0,29.775313160342968
329.0,29.772128621706443
330.0,29.76896961037055
331.0,29.76583590843054
332.0,29.762727300741048
333.0,29.759643574885757
334.0,29.756584521148895
335.0,29.753549932486315
336.0,29.750539565872124
337.0,29.7475532575204
338.0,29.744590808255438
339.0,29.74165198192079
340.0,29.738736583561547
341.0,29.735844460889606
342.0,29.732975424855454
343.0,29.730129248199532
344.0,29.72730574596727
345.0,29.724504776838053
346.0,29.721726078596667
347.0,29.71896955616816
348.0,29.716234993024514
349.0,29.713522258334148
350.0,29.710831097337532
351.0,29.708161426206154
352.0,29.705512993847705
353.0,29.702885678819065
354.0,29.700279362766025
355.0,29.69769380001356
356.0,29.69512887640408
357.0,29.692584393077833
358.0,29.690060284629084
359.0,29.68755631246852
360.0,29.685072371791634
361.0,29.682608316048302
362.0,29.680163956050446
363.0,29.677739193742116
364.0,29.67533384370216
365.0,29.67294781225535
366.0,29.670580917686678
367.0,29.66823307060455
368.0,29.66590409294267
369.0,29.66359389949688
370.0,29.66130231578915
371.0,29.659029214721393
372.0,29.656774471092874
373.0,29.654538007817184
374.0,29.65231965743104
375.0,29.650119300306574
376.0,29.647936818641416
377.0,29.645772096440126
378.0,29.64362501949653
379.0,29.641495475376146
380.0,29.639383400355612
381.0,29.637288591663182
382.0,29.635210988939633
383.0,29.63315048666024
384.0,29.63110702828147
385.0,29.629080369746134
386.0,29.62707055241897
387.0,29.625077430118203
388.0,29.62310085799222
389.0,29.62114078782569
390.0,29.619197125542772
391.0,29.617269730869502
392.0,29.615358560503395
393.0,29.613463525028784
394.0,29.611584488629312
395.0,29.609721412738264
396.0,29.60787416444328
397.0,29.60604270824685
398.0,29.604226962180405
399.0,29.602426797585487
400.0,29.600642135253967
401.0,29.598872945596252
402.0,29.597119104093817
403.0,29.595380535748447
404.0,29.593657215214186
405.0,29.591949070293836
406.0,29.59025593347581
407.0,29.58857783177625
408.0,29.58691464859548
409.0,29.585266316934486
410.0,29.583632771072253
411.0,29.582013994945285
412.0,29.58040987697522
413.0,29.578820355186615
414.0,29.57724536882584
415.0,29.57568485834299
416.0,29.57413876537928
417.0,29.572607032751108
418.0,29.571089652836015
419.0,29.569586473949137
420.0,29.568097490748926
421.0,29.566622650604003
422.0,29.56516190198724
423.0,29.56371524281007
424.0,29.5622824786465
425.0,29.560863706245996
426.0,29.55945882999
427.0,29.558067803644988
428.0,29.55669053373098
429.0,29.555327024338506
430.0,29.553977232248045
431.0,29.552641115208573
432.0,29.55131858377012
433.0,29.550009693947914
434.0,29.548714261934784
435.0,29.547432393654695
436.0,29.546163955356064
437.0,29.544908958462614
438.0,29.54366736717849
439.0,29.542439098636848
440.0,29.541224166771894
441.0,29.540022490494383
442.0,29.538834085335136
443.0,29.53765891971009
444.0,29.536496915106028
445.0,29.535348041663134
446.0,29.5342123179439
447.0,29.533089715505767
448.0,29.531980159115136
449.0,29.530883621967376
450.0,29.529800125440552
451.0,29.52872964403608
452.0,29.52767205827955
453.0,29.526627486252874
454.0,29.52559576267993
455.0,29.52457695950377
456.0,29.523571007521802
457.0,29.522577932533242
458.0,29.521597666740956
459.0,29.52063019014802
460.0,29.519675483384
461.0,29.518733574501304
462.0,29.517804398388414
463.0,29.516887984156426
464.0,29.51598422133972
465.0,29.515093186821396
466.0,29.51421481801563
467.0,29.51334909957448
468.0,29.51249601668815
469.0,29.511655601365714
470.0,29.5108277933977
471.0,29.510012579511567
472.0,29.509209946930483
473.0,29.508419883363946
474.0,29.50764237699444
475.0,29.506877416473493
476.0,29.506125036698066
477.0,29.505385135561273
478.0,29.504657794561517
479.0,29.503942958328558
480.0,29.503240572208433
481.0,29.502550718509617
482.0,29.50187334331865
483.0,29.5012083934293
484.0,29.50055595186268
485.0,29.499915966098698
486.0,29.499288429313214
487.0,29.498673290121516
488.0,29.49807063235539
489.0,29.49748040525146
490.0,29.49690255869815
491.0,29.496337177051874
492.0,29.49578416626256
493.0,29.495243566554876
494.0,29.49471537378146
495.0,29.49419962834842
496.0,29.49369623810292
497.0,29.493205200038805
498.0,29.49272659940526
499.0,29.49226038931222
500.0,29.4918065234968
501.0,29.491365043746644
502.0,29.49093599174313
503.0,29.49051923489452
504.0,29.490114902624335
505.0,29.48972295007183
506.0,29.48934333296104
507.0,29.488976093955486
508.0,29.48862123247489
509.0,29.488278748151096
510.0,29.487948597925538
511.0,29.487630824906873
512.0,29.487325429303624
513.0,29.487032411518562
514.0,29.48675177212364
515.0,29.48648346946218
516.0,29.48622754704892
517.0,29.48598396374105
518.0,29.48575280529684
519.0,29.485533988771657
520.0,29.485327515977406
521.0,29.485133472520374
522.0,29.48495177646543
523.0,29.48478247165312
524.0,29.484625518616163
525.0,29.484480961255464
526.0,29.48434880184827
527.0,29.484229042794258
528.0,29.484121645480023
529.0,29.484026612808023
530.0,29.483944029602263
531.0,29.483873816731567
532.0,29.48381597736998
533.0,29.483770595981735
534.0,29.483737594298688
535.0,29.483716975730804
536.0,29.483708784050016
537.0,29.483713022486665
538.0,29.48372965426666
539.0,29.483758723017594
540.0,29.483800232135195
541.0,29.483854145315416
542.0,29.483920466361248
543.0,29.4839992782076
544.0,29.484090465782018
545.0,29.484194151303427
546.0,29.484310259630377
547.0,29.484438794715572
548.0,29.48457979955107
549.0,29.48473327780618
550.0,29.484899194375952
551.0,29.485077591953182
552.0,29.485268435655982
553.0,29.485471767967283
554.0,29.48568755421811
555.0,29.485915836662084
556.0,29.486156580822595
557.0,29.486409828704083
558.0,29.486675583933053
559.0,29.486953812327407
560.0,29.487244517790636
561.0,29.487547741788546
562.0,29.487863487828896
563.0,29.4881917220474
564.0,29.488532448211096
565.0,29.48888570718585
566.0,29.48925150231402
567.0,29.489629799991263
568.0,29.49002060380266
569.0,29.490423953941942
570.0,29.49083985353647
571.0,29.491268269199054
572.0,29.49170920426664
573.0,29.49216269822302
574.0,29.492628753916847
575.0,29.493107338135193
576.0,29.493598453906202
577.0,29.494102139958017
578.0,29.494618398803834
579.0,29.4951471973638
580.0,29.495688538316635
581.0,29.496242459560474
582.0,29.496808963255532
583.0,29.497387981306986
584.0,29.497979621225227
585.0,29.49858381482283
586.0,29.499200564188317
587.0,29.49982990589958
588.0,29.50047180697115
589.0,29.50112630351127
590.0,29.50179336254702
591.0,29.502473019705477
592.0,29.50316524199553
593.0,29.50387006456054
594.0,29.50458745439427
595.0,29.505317412466688
596.0,29.506059973192464
597.0,29.50681513692188
598.0,29.507582870573998
599.0,29.508363174575926
600.0,29.509156082299626
601.0,29.509961593530207
602.0,29.510779675079508
603.0,29.51161032677578
604.0,29.51245358093903
605.0,29.513309436733856
606.0,29.514177828462373
607.0,29.515058852443808
608.0,29.51595244278165
609.0,29.516858598368202
610.0,29.517777349838283
611.0,29.518708663641128
612.0,29.519652569827926
613.0,29.520609034744908
614.0,29.521578087867866
615.0,29.522559695462554
616.0,29.523553886390772
617.0,29.52456062681663
618.0,29.525579945017164
619.0,29.52661180703989
620.0,29.527656240567268
621.0,29.528713211512052
622.0,29.529782746978853
623.0,29.530864812742138
624.0,29.531959435305602
625.0,29.533066580316728
626.0,29.53418627367774
627.0,29.53531851071545
628.0,29.53646322720928
629.0,29.537620507670653
630.0,29.538790287573093
631.0,29.539972561895297
632.0,29.541167354682514
633.0,29.5423746601523
634.0,29.543594443379188
635.0,29.54482669855819
636.0,29.546071448482728
637.0,29.54732868663009
638.0,29.54859837774823
639.0,29.549880543703235
640.0,29.551175149108325
641.0,29.55248221518132
642.0,29.553801706407057
643.0,29.555133643384686
644.0,29.556478018236
645.0,29.557834795237234
646.0,29.55920399402617
647.0,29.560585578734276
648.0,29.56197956840152
649.0,29.5633859270262
650.0,29.56480467300274
651.0,29.56623579709891
652.0,29.567679263137208
653.0,29.56913508858356
654.0,29.57060323708233
655.0,29.572083725499596
656.0,29.57357654367793
657.0,29.575081655085796
658.0,29.576599075665648
659.0,29.578128768724486
660.0,29.57967074960612
661.0,29.581225007247255
662.0,29.58279150480913
663.0,29.584370256685954
664.0,29.58596125127187
665.0,29.58756445159271
666.0,29.58917987110526
667.0,29.59080747274046
668.0,29.5924472942618
669.0,29.594099248590815
670.0,29.59576339768673
671.0,29.59743967933386
672.0,29.59912810532692
673.0,29.600828662455456
674.0,29.60254131331617
675.0,29.604266068756786
676.0,29.606002915127682
677.0,29.607751814849507
678.0,29.609512777988673
679.0,29.611285790380407
680.0,29.61307083774964
681.0,29.61486788234036
682.0,29.61667693310356
683.0,29.618497952239835
684.0,29.620330971053235
685.0,29.62217592851106
686.0,29.624032832455224
687.0,29.62590166753851
688.0,29.62778239584417
689.0,29.629675046716663
690.0,29.631579559583255
691.0,29.633495918981623
692.0,29.63542415299421
693.0,29.63736420149387
694.0,29.639316091884695
695.0,29.641279764170292
696.0,29.643255202074222
697.0,29.645242431961176
698.0,29.647241394125864
699.0,29.64925211413018
700.0,29.65127453255096
701.0,29.653308653338385
702.0,29.655354459107386
703.0,29.65741191173573
704.0,29.659481034966355
705.0,29.661561769954265
706.0,29.663654119406495
707.0,29.665758065338714
708.0,29.667873589667312
709.0,29.670000674119436
710.0,29.672139300410464
711.0,29.674289450048256
712.0,29.67645108493258
713.0,29.678624225532488
714.0,29.68080881413465
715.0,29.68300487049272
716.0,29.685212337166114
717.0,29.687431214260336
718.0,29.689661482539144
719.0,29.691903141310313
720.0,29.694156133639055
721.0,29.696420458710527
722.0,29.69869609685785
723.0,29.700983028292487
724.0,29.70328123307655
725.0,29.70559069121088
726.0,29.707911382565214
727.0,29.71024328690673
728.0,29.71258638390468
729.0,29.714940670552714
730.0,29.71730609124478
731.0,29.71968264294901
732.0,29.722070304772743
733.0,29.7244690559055
734.0,29.726878892256664
735.0,29.72929975882795
736.0,29.731731668027294
737.0,29.734174581661385
738.0,29.73662846189982
739.0,29.73909332009329
740.0,29.74156911808302
741.0,29.744055834137882
742.0,29.746553446288047
743.0,29.749061948475514
744.0,29.751581286716043
745.0,29.754111470386633
746.0,29.75665246125736
747.0,29.759204221591574
748.0,29.761766774805913
749.0,29.76434005220805
750.0,29.766924046270606
751.0,29.769518748998397
752.0,29.772124122209995
753.0,29.774740142663155
754.0,29.777366787163544
755.0,29.780004046630076
756.0,29.782651882915484
757.0,29.785310272233733
758.0,29.787979190979343
759.0,29.790658628957598
760.0,29.793348534224044
761.0,29.796048924032544
762.0,29.798759732603774
763.0,29.80148096279062
764.0,29.804212576274896
765.0,29.806954548319457
766.0,29.809706867273107
767.0,29.81246949477713
768.0,29.815242405640603
769.0,29.818025587444847
770.0,29.820819001726434
771.0,29.82362262298146
772.0,29.826436438013832
773.0,29.829260408262858
774.0,29.832094507853824
775.0,29.83493872271368
776.0,29.83779302634765
777.0,29.840657368197128
778.0,29.843531745697497
779.0,29.846416131810766
780.0,29.849310487896908
781.0,29.85221479846482
782.0,29.855129013331585
783.0,29.858053139368725
784.0,29.860987126333033
785.0,29.863930946754216
786.0,29.866884583791798
787.0,29.869847998656418
788.0,29.872821174025326
789.0,29.87580408155517
790.0,29.878796682270625
791.0,29.881798947989427
792.0,29.884810860330294
793.0,29.88783239046655
794.0,29.89086349936331
795.0,29.89390416809391
796.0,29.89695435762372
797.0,29.90001404847353
798.0,29.903083211183542
799.0,29.90616180668682
800.0,29.909249805532124
801.0,29.91234719654004
802.0,29.915453931426516
803.0,29.918569989211242
804.0,29.921695331014778
805.0,29.92482993551342
806.0,29.927973772493708
807.0,29.931126802903208
808.0,29.93428900491423
809.0,29.937460347939826
810.0,29.940640793008825
811.0,29.943830325970325
812.0,29.947028899691883
813.0,29.950236483497093
814.0,29.953453062328805
815.0,29.956678589531585
816.0,29.959913041904706
817.0,29.963156388405217
818.0,29.966408597798065
819.0,29.969669631785163
820.0,29.97293946646127
821.0,29.976218070808677
822.0,29.979505413418618
823.0,29.982801463140717
824.0,29.986106182131294
825.0,29.98941955246157
826.0,29.99274152974478
827.0,29.99607208941895
828.0,29.999411200409526
829.0,30.002758831502682
830.0,30.006114951595713
831.0,30.00947952962332
832.0,30.01285253476488
833.0,30.016233935868694
834.0,30.019623696622272
835.0,30.023021797353792
836.0,30.0264281964028
837.0,30.02984287412807
838.0,30.033265789099506
839.0,30.03669692148619
840.0,30.040136230714932
841.0,30.043583696600358
842.0,30.047039284069996
843.0,30.050502958443985
844.0,30.05397469944929
845.0,30.057454472548514
846.0,30.060942243728732
847.0,30.064437992820075
848.0,30.06794168596326
849.0,30.071453294096543
850.0,30.074972792439723
851.0,30.078500144119154
852.0,30.08203532478479
853.0,30.085578309633014
854.0,30.089129067047168
855.0,30.092687568491826
856.0,30.09625378672863
857.0,30.099827694082393
858.0,30.103409263120277
859.0,30.106998469701384
860.0,30.11059528376355
861.0,30.114199678486585
862.0,30.117811627394634
863.0,30.121431106677843
864.0,30.12505808775872
865.0,30.128692544166462
866.0,30.13233445054155
867.0,30.13598378359765
868.0,30.139640515221355
869.0,30.14330462073923
870.0,30.146976075031105
871.0,30.150654855147927
872.0,30.154340934401286
873.0,30.15803429013181
874.0,30.161734896358126
875.0,30.16544272882004
876.0,30.169157764802293
877.0,30.172879979175967
878.0,30.176609348121204
879.0,30.180345848925402
880.0,30.184089457253933
881.0,30.18784015018226
882.0,30.191597903658128
883.0,30.19536269491058
884.0,30.1991344998066
885.0,30.202913295060213
886.0,30.206699058179524
887.0,30.21049176509568
888.0,30.214291392391193
889.0,30.218097916980906
890.0,30.221911315201595
891.0,30.22573156302339
892.0,30.22955863719472
893.0,30.233392513561768
894.0,30.237233167978165
895.0,30.241080576033923
896.0,30.244934713890892
897.0,30.248795556179658
898.0,30.25266307686018
899.0,30.256537252621797
900.0,30.260418056134895
901.0,30.26430546234993
902.0,30.268199444131753
903.0,30.272099973893845
904.0,30.276007026020167
905.0,30.279920569621282
906.0,30.283840580587665
907.0,30.28776702566971
908.0,30.291699878041648
909.0,30.29563910566256
910.0,30.29958467853011
911.0,30.303536566319217
912.0,30.307494732730873
913.0,30.3114591493106
914.0,30.315429781579823
915.0,30.319406591624826
916.0,30.323389547431802
917.0,30.327378611154753
918.0,30.33137374524901
919.0,30.335374911940796
920.0,30.339382071279715
921.0,30.343395187204266
922.0,30.34741421241011
923.0,30.351439111343577
924.0,30.355469837567256
925.0,30.359506347669708
926.0,30.36354859684112
927.0,30.36759653896395
928.0,30.371650126439363
929.0,30.375709316423873
930.0,30.37977405279598
931.0,30.383844291616043
932.0,30.387919975988858
933.0,30.39200105820118
934.0,30.396087488975155
935.0,30.40017920753829
936.0,30.404276167845893
937.0,30.408378307479424
938.0,30.41248557871048
939.0,30.41659791755236
940.0,30.420715271908193
941.0,30.42483758521844
942.0,30.428964804524846
943.0,30.433096864514503
944.0,30.437233712083753
945.0,30.441375285432052
946.0,30.445521537338436
947.0,30.449672408504163
948.0,30.453827836531705
949.0,30.457987772568885
950.0,30.462152168421834
951.0,30.46632096174858
952.0,30.470494102178247
953.0,30.474671551798703
954.0,30.47885325248386
955.0,30.48303917296031
956.0,30.48722925526167
957.0,30.491423478780746
958.0,30.49562180348024
959.0,30.499824194661407
960.0,30.50403063234826
961.0,30.508241090675128
962.0,30.51245556715049
963.0,30.516674041405622
964.0,30.52089651836524
965.0,30.525122997163457
966.0,30.529353498543152
967.0,30.53358804470103
968.0,30.537826660508344
969.0,30.542069396230936
970.0,30.54631630528823
971.0,30.550567445462875
972.0,30.55482290245561
973.0,30.559082769582243
974.0,30.56334714638353
975.0,30.56761615716617
976.0,30.571889947874
977.0,30.576168679723885
978.0,30.580452522953927
979.0,30.58474168549559
980.0,30.58903638195502
981.0,30.593336865951642
982.0,30.597643401633082
983.0,30.60195629600321
984.0,30.606275876265485
985.0,30.610602486422685
986.0,30.614936531740042
987.0,30.619278439286866
988.0,30.623628661832726
989.0,30.62798770940045
990.0,30.632356107155807
991.0,30.636734465311022
992.0,30.64112338892203
993.0,30.64552357654717
994.0,30.649935757181716
995.0,30.65436070811561
996.0,30.658799270564714
997.0,30.663252347709644
998.0,30.667720911509697
999.0,30.672205988046933
1000.0,30.658515497794546
1001.0,30.663121076753157
1002.0,30.667728385032998
1003.0,30.67233740853213
1004.0,30.67694814188549
1005.0,30.681560553691106
1006.0,30.68617464742286
1007.0,30.690790409308587
1008.0,30.695407807544548
1009.0,30.700026846145644
1010.0,30.704647502225956
1011.0,30.709269761872406
