T(K),Cp_Thiswork
200.0,33.99366559616389
201.0,34.013369589228475
202.0,34.03339066131325
203.0,34.05372877146133
204.0,34.074383896628134
205.0,34.09535587730436
206.0,34.11664442192769
207.0,34.13824920063292
208.0,34.160169756810156
209.0,34.18240556987077
210.0,34.204956027721764
211.0,34.22782040079911
212.0,34.25099796005884
213.0,34.27448783462093
214.0,34.298289072956436
215.0,34.32240067320808
216.0,34.346821557008475
217.0,34.37155062647476
218.0,34.39658660229408
219.0,34.421928271786555
220.0,34.44757424665917
221.0,34.47352315407986
222.0,34.499773557312565
223.0,34.52632393220402
224.0,34.55317269616686
225.0,34.580318235723695
226.0,34.60775890753049
227.0,34.63549298957283
228.0,34.66351870906138
229.0,34.69183426894661
230.0,34.72043780032913
231.0,34.74932743763987
232.0,34.778501246951336
233.0,34.80795725257012
234.0,34.83769343889969
235.0,34.86770779868847
236.0,34.89799824075005
237.0,34.9285626621847
238.0,34.95939894909631
239.0,34.99050493247326
240.0,35.02187841305602
241.0,35.05351718498336
242.0,35.08541901458548
243.0,35.11758164195005
244.0,35.15000280391632
245.0,35.18268014953288
246.0,35.215611413046624
247.0,35.24879424344955
248.0,35.282226270820736
249.0,35.315905148806394
250.0,35.34982847265432
251.0,35.38399388333846
252.0,35.418398925962805
253.0,35.453041233280864
254.0,35.48791834534758
255.0,35.523027850843896
256.0,35.558367288881044
257.0,35.59393422863192
258.0,35.62972619261297
259.0,35.665740753837845
260.0,35.70197544081667
261.0,35.73842779591058
262.0,35.775095320278034
263.0,35.81197560430668
264.0,35.84906612540278
265.0,35.88636445117244
266.0,35.9238681296229
267.0,35.961574673112956
268.0,35.999481613279045
269.0,36.03758653592992
270.0,36.07588697618898
271.0,36.114380472757595
272.0,36.15306458564547
273.0,36.19193691306362
274.0,36.23099500723874
275.0,36.270236460023526
276.0,36.309658836447355
277.0,36.349259774584816
278.0,36.38903687027106
279.0,36.4289877278398
280.0,36.46910999257923
281.0,36.50940130261158
282.0,36.54985930576416
283.0,36.59048166010086
284.0,36.63126606533707
285.0,36.67221017015166
286.0,36.71331171196861
287.0,36.75456837859
288.0,36.795977915859524
289.0,36.83753806687815
290.0,36.879246587747375
291.0,36.92110124796187
292.0,36.963099816240536
293.0,37.00524013360783
294.0,37.04751998261888
295.0,37.089937232607234
296.0,37.13248969614996
297.0,37.17517527216087
298.0,37.217991818340394
299.0,37.260937264029636
300.0,37.304009498700424
301.0,37.34720646954135
302.0,37.39052613963699
303.0,37.43396646132722
304.0,37.477525430719744
305.0,37.521201060444504
306.0,37.56499135352961
307.0,37.60889438287309
308.0,37.65290817280628
309.0,37.69703083035745
310.0,37.741260453566554
311.0,37.78559513248775
312.0,37.83003302594792
313.0,37.874572272109546
314.0,37.91921105215823
315.0,37.963947564786125
316.0,38.0087799893563
317.0,38.05370658497728
318.0,38.098725579238476
319.0,38.14383524225767
320.0,38.18903387394577
321.0,38.23431975597985
322.0,38.27969122403255
323.0,38.32514660780031
324.0,38.370684278550854
325.0,38.41630261350896
326.0,38.462000007768594
327.0,38.50777487427634
328.0,38.55362564381068
329.0,38.599550787664015
330.0,38.645548760487515
331.0,38.691618068601755
332.0,38.737757201999145
333.0,38.78396470185025
334.0,38.83023909327462
335.0,38.876578963039606
336.0,38.92298288186254
337.0,38.96944944867306
338.0,39.01597727943755
339.0,39.0625650070772
340.0,39.10921129206324
341.0,39.15591480079644
342.0,39.202674205795724
343.0,39.24948822792777
344.0,39.2963555831884
345.0,39.343275014359534
346.0,39.39024526992988
347.0,39.43726512484623
348.0,39.48433335964309
349.0,39.531448791177965
350.0,39.57861023140502
351.0,39.625816528164655
352.0,39.673066514291655
353.0,39.72035908827422
354.0,39.76769311332657
355.0,39.81506749775379
356.0,39.86248115464301
357.0,39.90993302160855
358.0,39.95742203108709
359.0,40.00494715933512
360.0,40.052507377154456
361.0,40.100101679149404
362.0,40.147729064141494
363.0,40.195388554386014
364.0,40.24307918568759
365.0,40.290800007257175
366.0,40.33855008156802
367.0,40.38632847478621
368.0,40.434134284969076
369.0,40.481966613497065
370.0,40.52982458374174
371.0,40.577707312898056
372.0,40.62561393992421
373.0,40.67354363442975
374.0,40.72149555947545
375.0,40.769468880907326
376.0,40.817462812935226
377.0,40.8654765446892
378.0,40.91350929500699
379.0,40.96156029393548
380.0,41.009628782581345
381.0,41.05771401296981
382.0,41.10581523895793
383.0,41.153931742950135
384.0,41.20206280883812
385.0,41.25020773084371
386.0,41.29836581337652
387.0,41.34653637088616
388.0,41.39471874526693
389.0,41.44291225297455
390.0,41.49111626389019
391.0,41.539330122279935
392.0,41.58755319918622
393.0,41.6357848660974
394.0,41.68402452080946
395.0,41.73227155263807
396.0,41.78052536825932
397.0,41.82878538290235
398.0,41.87705101167229
399.0,41.92532170361142
400.0,41.97359689024515
401.0,42.02187602816887
402.0,42.07015856486878
403.0,42.11844397256344
404.0,42.16673172260796
405.0,42.215021302278316
406.0,42.26331219777559
407.0,42.31160391093526
408.0,42.359895942311965
409.0,42.40818780781592
410.0,42.45647903851504
411.0,42.50476914720639
412.0,42.55305767828526
413.0,42.601344166017924
414.0,42.64962817588856
415.0,42.69790924652217
416.0,42.746186939274324
417.0,42.79446083798117
418.0,42.84273051587503
419.0,42.89099554381062
420.0,42.93925552295721
421.0,42.987510035471864
422.0,43.03575868538206
423.0,43.08400108206607
424.0,43.132236840151656
425.0,43.18046557941841
426.0,43.228686908464866
427.0,43.276900473356875
428.0,43.32510589255081
429.0,43.37330282170154
430.0,43.42149089682023
431.0,43.469669766610984
432.0,43.517839084262775
433.0,43.565998523477035
434.0,43.61414773806014
435.0,43.662286394118325
436.0,43.710414169925414
437.0,43.75853075579604
438.0,43.806635813905686
439.0,43.85472905041138
440.0,43.90281014318716
441.0,43.95087879785035
442.0,43.998934715621296
443.0,44.046977593286364
444.0,44.095007147077965
445.0,44.14302308863372
446.0,44.19102512493462
447.0,44.239012990131116
448.0,44.28698639762649
449.0,44.33494508781516
450.0,44.38288878024545
451.0,44.430817205393566
452.0,44.478730120462345
453.0,44.52662725369265
454.0,44.574508344040595
455.0,44.62237315696436
456.0,44.6702214288092
457.0,44.718052930211606
458.0,44.76586740260254
459.0,44.8136646136387
460.0,44.86144432543796
461.0,44.90920630244295
462.0,44.95695032720546
463.0,45.004676152811065
464.0,45.05238356618007
465.0,45.100072340495544
466.0,45.147742266816834
467.0,45.19539310654832
468.0,45.24302466260136
469.0,45.290636723951756
470.0,45.33822906560037
471.0,45.38580148806791
472.0,45.4333537936204
473.0,45.48088577040796
474.0,45.52839722404148
475.0,45.57588794591905
476.0,45.62335775273367
477.0,45.670806438956106
478.0,45.71823382426514
479.0,45.76563971394833
480.0,45.813023914674275
481.0,45.860386250289025
482.0,45.9077265301169
483.0,45.95504457265929
484.0,46.002340197649914
485.0,46.04961322600694
486.0,46.0968634798046
487.0,46.14409079807815
488.0,46.191294981316574
489.0,46.2384758865418
490.0,46.28563332421131
491.0,46.33276712954491
492.0,46.37987713871151
493.0,46.426963188784086
494.0,46.474025109776115
495.0,46.521062740482336
496.0,46.568075920515135
497.0,46.61506449821913
498.0,46.66202830679582
499.0,46.70896718811025
500.0,46.75588100066268
501.0,46.80276957175014
502.0,46.84963276119085
503.0,46.89647041346335
504.0,46.94328237363606
505.0,46.990068503300535
506.0,47.03682864861992
507.0,47.08356265625276
508.0,47.13027039733633
509.0,47.17695171148049
510.0,47.22360647073852
511.0,47.27023451555729
512.0,47.316835718809784
513.0,47.36340992970526
514.0,47.40995702185871
515.0,47.45647684514462
516.0,47.50296926579969
517.0,47.54943415034276
518.0,47.59587136557796
519.0,47.64228077050901
520.0,47.688662232406195
521.0,47.735015626816164
522.0,47.78134082143572
523.0,47.82763767605641
524.0,47.87390606676405
525.0,47.9201458617151
526.0,47.9663569372744
527.0,48.01253916993357
528.0,48.05869242007377
529.0,48.104816572450055
530.0,48.150911503785785
531.0,48.1969770827525
532.0,48.24301318614695
533.0,48.28901969079108
534.0,48.33499648164848
535.0,48.38094343555939
536.0,48.426860429325785
537.0,48.472747339723426
538.0,48.51860405161814
539.0,48.564430449842256
540.0,48.61022641099275
541.0,48.655991819750604
542.0,48.701726560705296
543.0,48.74743051835422
544.0,48.793103577075456
545.0,48.83874562113329
546.0,48.88435653464326
547.0,48.92993620979958
548.0,48.975484530428204
549.0,49.021001380186306
550.0,49.066486659025216
551.0,49.11194024201864
552.0,49.15736202875745
553.0,49.20275190215469
554.0,49.24810976142594
555.0,49.293435497324936
556.0,49.338728992108
557.0,49.383990144348104
558.0,49.429218844108405
559.0,49.47441498948841
560.0,49.519578470066826
561.0,49.564709183446
562.0,49.60980702699301
563.0,49.65487188948232
564.0,49.69990366771569
565.0,49.74490226657208
566.0,49.78986757396401
567.0,49.83479949420149
568.0,49.87969792294203
569.0,49.924562763920115
570.0,49.96939390382022
571.0,50.014191245735034
572.0,50.05895470084371
573.0,50.10368416324491
574.0,50.14837952668754
575.0,50.19304070139593
576.0,50.237667597269066
577.0,50.282260098634794
578.0,50.326818114711074
579.0,50.37134156280886
580.0,50.41583032617172
581.0,50.46028432141723
582.0,50.50470345638364
583.0,50.54908763009952
584.0,50.59343674966222
585.0,50.63775073030394
586.0,50.68202946143409
587.0,50.72627286601029
588.0,50.77048084116375
589.0,50.814653309116345
590.0,50.85879016622909
591.0,50.90289132545153
592.0,50.94695669937529
593.0,50.9909862001861
594.0,51.034979731152646
595.0,51.07893720366149
596.0,51.122858545808484
597.0,51.16674365109062
598.0,51.21059243823136
599.0,51.25440482558152
600.0,51.29818072249421
601.0,51.341920037917966
602.0,51.38562269752449
603.0,51.42928860942233
604.0,51.47291769847888
605.0,51.51650987193362
606.0,51.560065045209626
607.0,51.60358314189308
608.0,51.6470640765468
609.0,51.69050776328483
610.0,51.73391413305106
611.0,51.77728309046268
612.0,51.8206145655822
613.0,51.86390847941706
614.0,51.90716474387483
615.0,51.9503832790315
616.0,51.99356402188552
617.0,52.03670687429413
618.0,52.07981177235094
619.0,52.12287864302943
620.0,52.16590739545167
621.0,52.20889796437277
622.0,52.25185026665887
623.0,52.294764236156894
624.0,52.33763979750735
625.0,52.38047686616017
626.0,52.42327537453258
627.0,52.46603525458336
628.0,52.50875642905234
629.0,52.55143882892327
630.0,52.59408238472355
631.0,52.636687017698456
632.0,52.679252657373716
633.0,52.72177924154717
634.0,52.76426668998016
635.0,52.8067149482775
636.0,52.84912394397624
637.0,52.89149359526742
638.0,52.93382384627198
639.0,52.976114631775374
640.0,53.018365886070825
641.0,53.06057752524967
642.0,53.10274950903329
643.0,53.144881761314736
644.0,53.18697420540073
645.0,53.229026799483634
646.0,53.271039465815974
647.0,53.313012143805636
648.0,53.35494477231728
649.0,53.39683728080965
650.0,53.43868962480906
651.0,53.480501732671385
652.0,53.52227354105081
653.0,53.56400500384234
654.0,53.60569603877158
655.0,53.6473466075235
656.0,53.688956635583295
657.0,53.73052607455524
658.0,53.77205486661724
659.0,53.813542953336736
660.0,53.85499027566287
661.0,53.896396773988656
662.0,53.93776240598787
663.0,53.97908710190087
664.0,54.020370809269224
665.0,54.06161347498805
666.0,54.10281505437547
667.0,54.14397548416383
668.0,54.185094718413254
669.0,54.22617269263043
670.0,54.26720936861068
671.0,54.30820468955923
672.0,54.34915859807633
673.0,54.3900710540715
674.0,54.43094199885026
675.0,54.47177139106711
676.0,54.512559170710176
677.0,54.55330530417662
678.0,54.59400973012464
679.0,54.63467240461621
680.0,54.675293292085314
681.0,54.715872320155995
682.0,54.75640946999631
683.0,54.79690467692305
684.0,54.837357902661964
685.0,54.877769099255474
686.0,54.91813822709352
687.0,54.95846523681432
688.0,54.99875009649905
689.0,55.0389927463187
690.0,55.079193152946985
691.0,55.11935127332599
692.0,55.15946707269521
693.0,55.19954049749278
694.0,55.239571511553876
695.0,55.2795600780189
696.0,55.319506150216085
697.0,55.35940968982139
698.0,55.39927066690585
699.0,55.43908904167364
700.0,55.47886476452997
701.0,55.51859780331053
702.0,55.558288125144756
703.0,55.59793569637132
704.0,55.63754046438919
705.0,55.67710241229727
706.0,55.71662149506439
707.0,55.75609768515423
708.0,55.79553093603187
709.0,55.83492121860964
710.0,55.87426850307132
711.0,55.91357274965651
712.0,55.952833936115056
713.0,55.99205203031397
714.0,56.03122698097404
715.0,56.07035878180042
716.0,56.10944738914779
717.0,56.14849276765533
718.0,56.187494899495675
719.0,56.22645374777623
720.0,56.26536929304899
721.0,56.30424148760231
722.0,56.34307032875088
723.0,56.38185576716283
724.0,56.42059778012664
725.0,56.45929634422686
726.0,56.49795144428191
727.0,56.53656303685243
728.0,56.57513109594953
729.0,56.61365561314186
730.0,56.652136551650386
731.0,56.69057389214481
732.0,56.72896760535937
733.0,56.767317670254556
734.0,56.805624065055795
735.0,56.84388676706142
736.0,56.88210576196414
737.0,56.92028101615932
738.0,56.95841251356434
739.0,56.99650023727803
740.0,57.0345441602999
741.0,57.072544263929416
742.0,57.11050053789272
743.0,57.14841295247865
744.0,57.18628149565879
745.0,57.22410614516987
746.0,57.26188688717964
747.0,57.29962370690042
748.0,57.33731657942775
749.0,57.37496549739939
750.0,57.412570434127105
751.0,57.45013138965861
752.0,57.48764833546828
753.0,57.525121260523065
754.0,57.56255015291015
755.0,57.59993500901207
756.0,57.637275796589876
757.0,57.67457251013012
758.0,57.71182513397454
759.0,57.749033670008956
760.0,57.78619809138313
761.0,57.82331839813696
762.0,57.8603945799927
763.0,57.89742661653095
764.0,57.93441449555276
765.0,57.97135822246918
766.0,58.00825778311727
767.0,58.04511316245282
768.0,58.08192435358866
769.0,58.11869135800053
770.0,58.15541416679885
771.0,58.19209276094955
772.0,58.2287271388639
773.0,58.26531730717298
774.0,58.301863243810814
775.0,58.33836495331778
776.0,58.37482242084245
777.0,58.41123564886185
778.0,58.44760463894495
779.0,58.48392937303761
780.0,58.52020985977691
781.0,58.556446097573655
782.0,58.59263806515767
783.0,58.628785786539
784.0,58.66488923832655
785.0,58.70094843312391
786.0,58.73696335465594
787.0,58.77293402256694
788.0,58.808860418358194
789.0,58.844742550284934
790.0,58.88058041611386
791.0,58.91637401251394
792.0,58.95212335364971
793.0,58.987828424672486
794.0,59.02348923742768
795.0,59.05910579330596
796.0,59.09467809254117
797.0,59.130206134261726
798.0,59.16568992576207
799.0,59.20112947292796
800.0,59.23652477142433
801.0,59.271875834185025
802.0,59.30718265441503
803.0,59.34244524268169
804.0,59.37766360826595
805.0,59.41283775005709
806.0,59.447967674970045
807.0,59.48305338867779
808.0,59.51809490483123
809.0,59.553092208241196
810.0,59.58804532860411
811.0,59.62295425738702
812.0,59.65781901250379
813.0,59.69263959230558
814.0,59.72741601207859
815.0,59.76214827682995
816.0,59.79683639025215
817.0,59.83148036384601
818.0,59.86608020794611
819.0,59.900635931580396
820.0,59.935147542457926
821.0,59.969615047064934
822.0,60.00403845963345
823.0,60.03841779323392
824.0,60.07275304108775
825.0,60.107044232011845
826.0,60.14129137502705
827.0,60.17549446863899
828.0,60.20965353762146
829.0,60.24376857778945
830.0,60.2778396204605
831.0,60.31186665872487
832.0,60.34584971197262
833.0,60.37978879820267
834.0,60.41368392494168
835.0,60.44753509821193
836.0,60.481342341078005
837.0,60.51510565701129
838.0,60.548825066300296
839.0,60.58250058788781
840.0,60.61613222111582
841.0,60.649719991239635
842.0,60.68326390397608
843.0,60.716763981901224
844.0,60.75022023700127
845.0,60.78363268009558
846.0,60.81700133857754
847.0,60.85032620208203
848.0,60.88360731375231
849.0,60.91684467855903
850.0,60.95003830946146
851.0,60.98318822695843
852.0,61.016294441085066
853.0,61.049356978809925
854.0,61.08237584733932
855.0,61.115351070802944
856.0,61.14828266272869
857.0,61.18117064438209
858.0,61.21401502669275
859.0,61.24681583711276
860.0,61.27957308368036
861.0,61.31228680027195
862.0,61.344956992157734
863.0,61.37758368115354
864.0,61.41016688791319
865.0,61.44270663169685
866.0,61.475202930069855
867.0,61.50765581777337
868.0,61.54006529145826
869.0,61.5724313921078
870.0,61.6047541316444
871.0,61.63703353002769
872.0,61.66926961483033
873.0,61.70146241196788
874.0,61.7336119280111
875.0,61.76571819543027
876.0,61.79778123591791
877.0,61.8298010699224
878.0,61.86177772555426
879.0,61.89371122945229
880.0,61.92560158878521
881.0,61.9574488453206
882.0,61.989253021655415
883.0,62.02101412950945
884.0,62.05273220651097
885.0,62.08440727965794
886.0,62.116039365640674
887.0,62.14762848873862
888.0,62.179174680636706
889.0,62.21067797159537
890.0,62.24213838143048
891.0,62.27355593746714
892.0,62.30493067459136
893.0,62.3362626080347
894.0,62.36755177877967
895.0,62.398798208069834
896.0,62.430001915734266
897.0,62.46116294691166
898.0,62.49228131828967
899.0,62.52335706314645
900.0,62.55439020382575
901.0,62.585380779345854
902.0,62.61632880890835
903.0,62.64723433732969
904.0,62.678097371637975
905.0,62.70891796206887
906.0,62.73969613032821
907.0,62.77043190538174
908.0,62.801125314636224
909.0,62.83177639216453
910.0,62.86238516231984
911.0,62.89295166457569
912.0,62.923475927780046
913.0,62.953957970890386
914.0,62.984397836768224
915.0,63.01479554917542
916.0,63.045151129798995
917.0,63.0754646252181
918.0,63.105736053219985
919.0,63.13596544751741
920.0,63.16615283084063
921.0,63.19629824188624
922.0,63.22640169950499
923.0,63.25646324681503
924.0,63.28648288984705
925.0,63.316460676373396
926.0,63.34639662608748
927.0,63.37629077348632
928.0,63.406143133797585
929.0,63.4359537375437
930.0,63.46572261337491
931.0,63.495449795545824
932.0,63.52513529101434
933.0,63.554779138786884
934.0,63.58438135832746
935.0,63.61394197588825
936.0,63.64346101516506
937.0,63.672938506252834
938.0,63.70237446008825
939.0,63.7317689022841
940.0,63.76112186546507
941.0,63.79043336251041
942.0,63.81970342090743
943.0,63.84893204997098
944.0,63.878119290512046
945.0,63.90726514717883
946.0,63.936369657046555
947.0,63.96543282077306
948.0,63.99445468112367
949.0,64.02343524319762
950.0,64.05237453685234
951.0,64.08127257421864
952.0,64.11012939887796
953.0,64.13894501079362
954.0,64.16771944359209
955.0,64.1964527207343
956.0,64.22514486447452
957.0,64.25379591422903
958.0,64.28240587510123
959.0,64.31097480246108
960.0,64.33950270917694
961.0,64.3679896344119
962.0,64.3964356171722
963.0,64.42484069858331
964.0,64.453204911596
965.0,64.48152831595577
966.0,64.50981094935163
967.0,64.53805286721864
968.0,64.5662541294869
969.0,64.5944148067316
970.0,64.6225349650659
971.0,64.65061467528558
972.0,64.67865403102692
973.0,64.70665310425643
974.0,64.73461201792958
975.0,64.76253086643747
976.0,64.79040976969074
977.0,64.81824884791202
978.0,64.84604825569828
979.0,64.87380814252893
980.0,64.9015286675085
981.0,64.92921001243216
982.0,64.95685237987807
983.0,64.98445597178225
984.0,65.01202102154014
985.0,65.03954778940837
986.0,65.06703652840314
987.0,65.09448754642344
988.0,65.12190115552403
989.0,65.14927769988184
990.0,65.17661754171563
991.0,65.20392109305885
992.0,65.23118876300337
993.0,65.25842102550487
994.0,65.28561837861976
995.0,65.31278136424343
996.0,65.33991053757899
997.0,65.36700653546184
998.0,65.39407000375078
999.0,65.42110166020773
1000.0,65.42121887217186
1001.0,65.44886814728684
1002.0,65.47646133189583
1003.0,65.5039987338545
1004.0,65.53148067185606
1005.0,65.55890745876145
1006.0,65.5862793850193
1007.0,65.61359676862374
1008.0,65.64085989691031
1009.0,65.66806905988878
1010.0,65.69522455852301
1011.0,65.72232667160218
1012.0,65.74937568893095
1013.0,65.77637188651548
1014.0,65.80331554314701
1015.0,65.83020692391776
1016.0,65.85704630501932
1017.0,65.88383394901062
1018.0,65.9105701213479
1019.0,65.93725508217284
1020.0,65.96388907813582
1021.0,65.9904723670934
1022.0,66.01700520987062
1023.0,66.04348782932937
1024.0,66.06992049235538
