T(K),Cp_Thiswork
200.0,68.38393483154684
201.0,68.75747208864156
202.0,69.12683084126238
203.0,69.49221627622983
204.0,69.8538240936257
205.0,70.21184083317465
206.0,70.56644382901223
207.0,70.91780077021576
208.0,71.26607145837788
209.0,71.61140699773384
210.0,71.95395082192137
211.0,72.29383860351406
212.0,72.63119775101413
213.0,72.96614997959254
214.0,73.29880927508682
215.0,73.629282508736
216.0,73.95767126471779
217.0,74.28407051509134
218.0,74.60856964753943
219.0,74.93125188726695
220.0,75.25219532460333
221.0,75.57147355856031
222.0,75.88915467585836
223.0,76.20530185536593
224.0,76.51997440989277
225.0,76.833227144996
226.0,77.1451113988079
227.0,77.45567307293223
228.0,77.76495624789159
229.0,78.07300077506717
230.0,78.3798428561433
231.0,78.68551607797303
232.0,78.99005113043233
233.0,79.29347505166486
234.0,79.59581405594986
235.0,79.89708962208522
236.0,80.19732312994397
237.0,80.49653190429963
238.0,80.79473297469336
239.0,81.09193951727923
240.0,81.3881641732051
241.0,81.6834182397983
242.0,81.97771083019586
243.0,82.27104894712605
244.0,82.56343991834247
245.0,82.85488818059171
246.0,83.14539865702818
247.0,83.43497350560224
248.0,83.72361550993655
249.0,84.01132575672983
250.0,84.29810415832726
251.0,84.5839504634929
252.0,84.86886430930414
253.0,85.15284380914596
254.0,85.43588655124259
255.0,85.71799060691224
256.0,85.99915310084621
257.0,86.27937022917901
258.0,86.55863923802418
259.0,86.83695550195925
260.0,87.11431597038033
261.0,87.39071573977633
262.0,87.66615051648195
263.0,87.94061810647182
264.0,88.2141110103109
265.0,88.4866243134025
266.0,88.75815519760097
267.0,89.02870343409687
268.0,89.29825651200555
269.0,89.56681933856896
270.0,89.83437955006188
271.0,90.1009372201779
272.0,90.36648501901118
273.0,90.63102801360809
274.0,90.8945489533125
275.0,91.1570577946142
276.0,91.41854212822257
277.0,91.67900677000394
278.0,91.93843908303704
279.0,92.19684357209835
280.0,92.45421711395073
281.0,92.71055388185736
282.0,92.96585516691022
283.0,93.22011946759879
284.0,93.47334246570017
285.0,93.72552680670229
286.0,93.97666732661999
287.0,94.22676572364192
288.0,94.47581582923007
289.0,94.72382796628368
290.0,94.97078989020525
291.0,95.21671058539529
292.0,95.4615861448905
293.0,95.70541433390098
294.0,95.94820415165667
295.0,96.18994683299466
296.0,96.43064954332853
297.0,96.67031123940068
298.0,96.90892748586114
299.0,97.14651420662034
300.0,97.38305523034643
301.0,97.61856882539249
302.0,97.85304591838077
303.0,98.08648800466908
304.0,98.31890693168346
305.0,98.55029668864861
306.0,98.78066152908987
307.0,99.01000647839804
308.0,99.23832802811211
309.0,99.46563722252247
310.0,99.69193184375864
311.0,99.91721485193953
312.0,100.1414896817491
313.0,100.36476470063688
314.0,100.58703500258497
315.0,100.80830507493384
316.0,101.0285840737024
317.0,101.24786783841004
318.0,101.4661701626512
319.0,101.68348259126715
320.0,101.89981881398957
321.0,102.11517471226352
322.0,102.32955919563892
323.0,102.5429721517713
324.0,102.75542185621644
325.0,102.96690752120294
326.0,103.17743227076895
327.0,103.38700723615034
328.0,103.59563011828394
329.0,103.80330651376372
330.0,104.01003707539341
331.0,104.21583424765336
332.0,104.42069285407129
333.0,104.6246193677555
334.0,104.8276192243747
335.0,105.02969269352332
336.0,105.23085118639348
337.0,105.43109265277945
338.0,105.63042195238839
339.0,105.82884260676894
340.0,106.02635676240817
341.0,106.22297305077454
342.0,106.41869062910759
343.0,106.61351888575909
344.0,106.80745767380311
345.0,107.00050908027225
346.0,107.19268111825134
347.0,107.38397604450446
348.0,107.57439423985778
349.0,107.76394547797405
350.0,107.95262986248073
351.0,108.1404491928211
352.0,108.32741421892082
353.0,108.5135185976277
354.0,108.69877580580244
355.0,108.88318221251676
356.0,109.06674632993001
357.0,109.24946689400218
358.0,109.43135085462568
359.0,109.61240244319039
360.0,109.79262668108636
361.0,109.97201883009582
362.0,110.1505922875284
363.0,110.32834356487666
364.0,110.50528004599195
365.0,110.68140599091798
366.0,110.85671919419994
367.0,111.03122781489161
368.0,111.20493667174476
369.0,111.37784397997737
370.0,111.5499578350707
371.0,111.72127955562225
372.0,111.89181027649872
373.0,112.06155726258238
374.0,112.23052407703406
375.0,112.39871062414235
376.0,112.5661225751011
377.0,112.73276175543914
378.0,112.89863235654288
379.0,113.06374075685638
380.0,113.2280832097642
381.0,113.39167022214991
382.0,113.55449903086253
383.0,113.71657773380333
384.0,113.87790712891062
385.0,114.0384925769675
386.0,114.19833214379723
387.0,114.35743690937257
388.0,114.51580184803214
389.0,114.67343748337522
390.0,114.83034392137519
391.0,114.98652229958233
392.0,115.14198017698513
393.0,115.29671747929298
394.0,115.45073757716717
395.0,115.60404435559471
396.0,115.75664476848519
397.0,115.90853535040438
398.0,116.05972358713436
399.0,116.21021171638509
400.0,116.36000201507443
401.0,116.5090992641961
402.0,116.65750545413233
403.0,116.8052248455564
404.0,116.95225876780513
405.0,117.09861308384578
406.0,117.24428805448835
407.0,117.389290669629
408.0,117.53361974572819
409.0,117.67728055840804
410.0,117.82027733143995
411.0,117.96261081699598
412.0,118.1042876889296
413.0,118.2453085967898
414.0,118.38567520894617
415.0,118.52539461953793
416.0,118.66446546089134
417.0,118.8028960652423
418.0,118.94068619027895
419.0,119.07783827666924
420.0,119.21435722499156
421.0,119.35024801881076
422.0,119.48551561015307
423.0,119.62014358884579
424.0,119.75416652966047
425.0,119.88756757557111
426.0,120.02034256904442
427.0,120.15251986246199
428.0,120.28407760347224
429.0,120.41502627825689
430.0,120.5453872398941
431.0,120.67515261438369
432.0,120.80430605963868
433.0,120.93286181511901
434.0,121.06084400538117
435.0,121.18822897494356
436.0,121.31504161800625
437.0,121.4412596545603
438.0,121.56690820982706
439.0,121.69196585013671
440.0,121.81645743585719
441.0,121.94039788747124
442.0,122.06375685042794
443.0,122.18654899641983
444.0,122.30877934202967
445.0,122.43046090635211
446.0,122.55157987430064
447.0,122.67216476851664
448.0,122.7921832611881
449.0,122.91166173009866
450.0,123.0305997422639
451.0,123.14898755738031
452.0,123.26683889205098
453.0,123.38415756949483
454.0,123.50095377151966
455.0,123.61721209848513
456.0,123.73295509459324
457.0,123.84816404228823
458.0,123.96284203775853
459.0,124.07702800305633
460.0,124.19067472438749
461.0,124.30381641319009
462.0,124.4164616228446
463.0,124.52857975706166
464.0,124.64020392358852
465.0,124.751327653283
466.0,124.861949154304
467.0,124.97208499245222
468.0,125.08171354033523
469.0,125.19084545010692
470.0,125.29950835991971
471.0,125.4076650550682
472.0,125.51534997003881
473.0,125.62254664752255
474.0,125.72928167879672
475.0,125.83551883887148
476.0,125.94129030503731
477.0,126.04660429320762
478.0,126.15143351962101
479.0,126.25580396501209
480.0,126.35970586914041
481.0,126.46314416265453
482.0,126.56613762168435
483.0,126.66865826258595
484.0,126.77074007502199
485.0,126.872358638591
486.0,126.973526700311
487.0,127.07425775800299
488.0,127.17454314894174
489.0,127.27437553557918
490.0,127.37378214377175
491.0,127.4727346840757
492.0,127.57126116054606
493.0,127.66935648851509
494.0,127.76701610250281
495.0,127.86425698402101
496.0,127.9610640533822
497.0,128.05744351753555
498.0,128.1534011453769
499.0,128.2489421579634
500.0,128.3440711250076
501.0,128.4387719579763
502.0,128.53306795277123
503.0,128.626951403048
504.0,128.72042364469203
505.0,128.8134944745048
506.0,128.90615322547868
507.0,128.99840711009202
508.0,129.0902709248658
509.0,129.18172986561535
510.0,129.27278626307321
511.0,129.36345858811748
512.0,129.45372718641534
513.0,129.54361522851192
514.0,129.63310808243133
515.0,129.7222153922804
516.0,129.81093562472773
517.0,129.8992818084335
518.0,129.9872389285739
519.0,130.0748147902921
520.0,130.16202237681745
521.0,130.24884709719598
522.0,130.33530409697437
523.0,130.4213890837701
524.0,130.50710270509117
525.0,130.5924424133469
526.0,130.67742552240063
527.0,130.76204248903608
528.0,130.84629573574372
529.0,130.93019147213997
530.0,131.01372465399783
531.0,131.09690127412978
532.0,131.17973045788915
533.0,131.26220278509328
534.0,131.34431933124245
535.0,131.42609099698737
536.0,131.507510248265
537.0,131.58859292876483
538.0,131.66932284140196
539.0,131.74971347359903
540.0,131.829766622663
541.0,131.90947286979048
542.0,131.98885090221773
543.0,132.06788823515163
544.0,132.14658709329066
545.0,132.2249635163474
546.0,132.30300305124425
547.0,132.38071748554958
548.0,132.4581008164709
549.0,132.53516010538945
550.0,132.6118968218923
551.0,132.68831288676438
552.0,132.76440469683664
553.0,132.84017480458277
554.0,132.9156314651566
555.0,132.99077692733866
556.0,133.06560203905178
557.0,133.14011430688348
558.0,133.2143205148595
559.0,133.28821582648112
560.0,133.36180029311652
561.0,133.4350784691656
562.0,133.50805381366655
563.0,133.58072344250255
564.0,133.65309368405872
565.0,133.72516427469864
566.0,133.79693859007844
567.0,133.86841341367995
568.0,133.93958895804823
569.0,134.01047340290592
570.0,134.0810679506255
571.0,134.15136706213016
572.0,134.22137746099517
573.0,134.2910987807288
574.0,134.36053758692842
575.0,134.42968870247188
576.0,134.4985536798216
577.0,134.56714031555146
578.0,134.63544019288102
579.0,134.70346422162177
580.0,134.77121135148977
581.0,134.83868184662035
582.0,134.9058897206705
583.0,134.97278688012221
584.0,135.03944352848134
585.0,135.1058297359151
586.0,135.17190531435605
587.0,135.237779827106
588.0,135.3033493096254
589.0,135.3686197895569
590.0,135.43366272535167
591.0,135.4984585737053
592.0,135.5629770521259
593.0,135.62721498139211
594.0,135.6912316874729
595.0,135.7549626826713
596.0,135.81844316749172
597.0,135.8816594822003
598.0,135.9446223565924
599.0,136.00736547547567
600.0,136.06984022514555
601.0,136.1320569761718
602.0,136.1940140623946
603.0,136.25573180116623
604.0,136.31721803024064
605.0,136.3784358488118
606.0,136.43943562118824
607.0,136.50015769895649
608.0,136.56066029981884
609.0,136.62092475202945
610.0,136.68095259979555
611.0,136.74073369479623
612.0,136.8003074427128
613.0,136.8596097937511
614.0,136.91868668632304
615.0,136.97754106407365
616.0,137.0361350323588
617.0,137.094535719196
618.0,137.1526819500622
619.0,137.2105879436044
620.0,137.2682835032667
621.0,137.32575798053188
622.0,137.38301676005258
623.0,137.44002641995255
624.0,137.49682324361294
625.0,137.55340396516414
626.0,137.60975380985775
627.0,137.6658985423572
628.0,137.72180018435986
629.0,137.77751161153117
630.0,137.83299695093396
631.0,137.8882595627411
632.0,137.94329102254937
633.0,137.99814403021716
634.0,138.05276187907648
635.0,138.10717310182991
636.0,138.1613933598694
637.0,138.21537979177418
638.0,138.26917112985367
639.0,138.32274760164788
640.0,138.37612334663308
641.0,138.42927814820948
642.0,138.48224662373133
643.0,138.53500700272508
644.0,138.5875695970695
645.0,138.6399114815449
646.0,138.6920828003292
647.0,138.74403710165504
648.0,138.79577972693286
649.0,138.84734466773392
650.0,138.89871276129352
651.0,138.94987385360508
652.0,139.00084579983096
653.0,139.0516340657581
654.0,139.10221309070957
655.0,139.15260368560456
656.0,139.202814153934
657.0,139.25282227844636
658.0,139.30265023372692
659.0,139.35228948759274
660.0,139.4017382209622
661.0,139.45098309756716
662.0,139.50007000240458
663.0,139.54896177525285
664.0,139.5976628006731
665.0,139.64618268469414
666.0,139.69451903858118
667.0,139.74269124132292
668.0,139.7906569351917
669.0,139.83846159032905
670.0,139.8860888970403
671.0,139.9335275894474
672.0,139.98078680234394
673.0,140.02787928829684
674.0,140.07479030250536
675.0,140.12152464109766
676.0,140.16809041305243
677.0,140.21448383821075
678.0,140.26070449762003
679.0,140.30674046208935
680.0,140.35262645251407
681.0,140.39832714215228
682.0,140.44386771982883
683.0,140.48923288395304
684.0,140.5344378750504
685.0,140.57947213050616
686.0,140.62434104133024
687.0,140.66903827754186
688.0,140.7135727087918
689.0,140.75795440477688
690.0,140.80216860433146
691.0,140.84621526867312
692.0,140.89009554008044
693.0,140.93382405979713
694.0,140.9773910196745
695.0,141.0208000473747
696.0,141.06405527160126
697.0,141.10713724141144
698.0,141.15007509810033
699.0,141.1928501846026
700.0,141.23547954811042
701.0,141.27794518273183
702.0,141.32025244220327
703.0,141.36241746817277
704.0,141.40442214509332
705.0,141.44627064327992
706.0,141.48797726811296
707.0,141.529533608496
708.0,141.5709308575773
709.0,141.61218071728499
710.0,141.65328303636753
711.0,141.6942468605581
712.0,141.73504919121638
713.0,141.77571696931201
714.0,141.81622490295044
715.0,141.85659645011887
716.0,141.89682330507276
717.0,141.93690544868647
718.0,141.97684108041017
719.0,142.01664542031142
720.0,142.05629382600546
721.0,142.09580668464977
722.0,142.1351831360471
723.0,142.17441109474836
724.0,142.21350338919726
725.0,142.25245223989944
726.0,142.29127384219296
727.0,142.3299465913665
728.0,142.36848977787338
729.0,142.40689377457352
730.0,142.44516320412035
731.0,142.4832995517436
732.0,142.52129304883533
733.0,142.55916356542997
734.0,142.59689496854418
735.0,142.63449227419088
736.0,142.6719569496209
737.0,142.70929472330735
738.0,142.7464999366501
739.0,142.78357118024462
740.0,142.82051844720556
741.0,142.85733277976433
742.0,142.89402380514036
743.0,142.9305823916923
744.0,142.96701738841813
745.0,143.00331909230184
746.0,143.0395022243257
747.0,143.07555593087577
748.0,143.11148622868146
749.0,143.14728783176758
750.0,143.18296479887402
751.0,143.2185232805272
752.0,143.25395814340524
753.0,143.2892729725782
754.0,143.32446019784524
755.0,143.3595270386241
756.0,143.39447572024528
757.0,143.4292973975631
758.0,143.46399112297559
759.0,143.49859989310733
760.0,143.5330514145681
761.0,143.56744448074716
762.0,143.60168572061656
763.0,143.6357915598012
764.0,143.6697668323029
765.0,143.70366240243868
766.0,143.73745955820596
767.0,143.7710735800433
768.0,143.8046337248636
769.0,143.83803403766711
770.0,143.87137872001045
771.0,143.9045960561702
772.0,143.93765950550198
773.0,143.97063766100925
774.0,144.00348170491247
775.0,144.03623666614277
776.0,144.06888412812626
777.0,144.10144586100608
778.0,144.13388226850122
779.0,144.16619379675302
780.0,144.198370129808
781.0,144.23048682649195
782.0,144.26246279157107
783.0,144.2943508237253
784.0,144.32614421603304
785.0,144.35777977067798
786.0,144.3893685667583
787.0,144.42082595920903
788.0,144.45219401132033
789.0,144.4834140932547
790.0,144.51459403910772
791.0,144.54561051743914
792.0,144.5765484344255
793.0,144.6073939459215
794.0,144.63812317120085
795.0,144.66874402003862
796.0,144.69929442509053
797.0,144.72971912214246
798.0,144.76003475614692
799.0,144.79028636989221
800.0,144.82038887262584
801.0,144.85044427437728
802.0,144.88034777483037
803.0,144.91017841975795
804.0,144.93992625788022
805.0,144.96957125014873
806.0,144.9990837154561
807.0,145.02853396775419
808.0,145.05787085423486
809.0,145.0871418192245
810.0,145.1162760995778
811.0,145.14533501269665
812.0,145.174297861397
813.0,145.203168553237
814.0,145.23194043545334
815.0,145.26063017947956
816.0,145.2892103057037
817.0,145.3177095774316
818.0,145.34611282149515
819.0,145.37442719503602
820.0,145.40264922577182
821.0,145.43076526774536
822.0,145.45881401039625
823.0,145.4867608127066
824.0,145.51459257698892
825.0,145.54237667498992
826.0,145.5700484145847
827.0,145.5976238446606
828.0,145.62513723311187
829.0,145.65252473897306
830.0,145.67985752766205
831.0,145.7070807454516
832.0,145.73424328526528
833.0,145.761298954332
834.0,145.78824797268587
835.0,145.81513448783798
836.0,145.8419371396387
837.0,145.86865178960912
838.0,145.89529054475346
839.0,145.9218289666279
840.0,145.94828483724302
841.0,145.97466511062473
842.0,146.000941251133
843.0,146.02715040544956
844.0,146.0532689332707
845.0,146.0793127993441
846.0,146.1052872704024
847.0,146.1311397083555
848.0,146.15695113322016
849.0,146.18264920676324
850.0,146.2082931332762
851.0,146.2338382975114
852.0,146.2592997924574
853.0,146.28470451099534
854.0,146.31000186825534
855.0,146.33524298416322
856.0,146.3603802292409
857.0,146.38546530399216
858.0,146.41045295760023
859.0,146.43537395726335
860.0,146.46020635099916
861.0,146.48498095166934
862.0,146.50965637371212
863.0,146.5342636909567
864.0,146.55878300049326
865.0,146.58324459707978
866.0,146.60762867389
867.0,146.63192576817443
868.0,146.65615527513566
869.0,146.6803071039883
870.0,146.704380550061
871.0,146.72838372874716
872.0,146.75231469094163
873.0,146.77616184761646
874.0,146.79995826419994
875.0,146.82365484951393
876.0,146.8473003911771
877.0,146.87086236905435
878.0,146.8943516205226
879.0,146.91776889382774
880.0,146.94112214431817
881.0,146.96439267572356
882.0,146.98760252695172
883.0,147.0107305219163
884.0,147.033795324678
885.0,147.05678923938441
886.0,147.07971117312061
887.0,147.10256621644837
888.0,147.12536523920616
889.0,147.14807839496493
890.0,147.1707283837247
891.0,147.19329736784002
892.0,147.21581834250043
893.0,147.23825448905185
894.0,147.2606339905664
895.0,147.28294553615174
896.0,147.30518312261347
897.0,147.3273598562606
898.0,147.3494648841829
899.0,147.3715061035876
900.0,147.39348169229902
901.0,147.41539409112315
902.0,147.43723626616966
903.0,147.45901870589486
904.0,147.48072895842614
905.0,147.50237179590414
906.0,147.52395536721056
907.0,147.54547817433476
908.0,147.56692947462136
909.0,147.58832718014474
910.0,147.6096544462058
911.0,147.63092258900957
912.0,147.652121088106
913.0,147.67325460644267
914.0,147.69433026637282
915.0,147.7153456820161
916.0,147.73628935500977
917.0,147.75718712876176
918.0,147.7780090166098
919.0,147.79877349205557
920.0,147.81947795710482
921.0,147.84011077036214
922.0,147.8606953996311
923.0,147.88121274780218
924.0,147.90166754025742
925.0,147.92206582831417
926.0,147.9424043327334
927.0,147.96268122932565
928.0,147.98290629064118
929.0,148.00305946901858
930.0,148.02315282604664
931.0,148.0431988989661
932.0,148.06317106194493
933.0,148.08309344621335
934.0,148.10295118153468
935.0,148.12275935436472
936.0,148.14249502106446
937.0,148.1621835559249
938.0,148.18181249007867
939.0,148.20137933102419
940.0,148.2208909934847
941.0,148.24034521552434
942.0,148.25973986392196
943.0,148.27908168890553
944.0,148.29836830805863
945.0,148.31758858355394
946.0,148.33675727512554
947.0,148.35587124514694
948.0,148.3749354685952
949.0,148.39393760677586
950.0,148.4128817240934
951.0,148.43177110272867
952.0,148.45058400279194
953.0,148.46937067002932
954.0,148.48813108527443
955.0,148.50678606081846
956.0,148.52540581776583
957.0,148.54397239986434
958.0,148.56245988279667
959.0,148.5809850539759
960.0,148.59935372494908
961.0,148.61773914712404
962.0,148.63600734250534
963.0,148.65430985791926
964.0,148.67249769896333
965.0,148.69063149776767
966.0,148.7087609334115
967.0,148.72678643356895
968.0,148.7448098379596
969.0,148.7627844681147
970.0,148.78065697442483
971.0,148.79856753617528
972.0,148.81637842893784
973.0,148.834144835321
974.0,148.8519113220229
975.0,148.86958421790732
976.0,148.88719189468299
977.0,148.9048159696852
978.0,148.92240219391738
979.0,148.93989007256283
980.0,148.957395844909
981.0,148.9748419571697
982.0,148.99226496558353
983.0,149.00963258387623
984.0,149.02696402432312
985.0,149.04426947768104
986.0,149.06155047782258
987.0,149.07880025744672
988.0,149.0960603226125
989.0,149.1132509911748
990.0,149.13039777105865
991.0,149.1475715951789
992.0,149.1646703452399
993.0,149.18180179208304
994.0,149.19890244573347
995.0,149.21595565400287
996.0,149.23304122442292
997.0,149.25007351616782
998.0,149.26711495062767
999.0,149.28416708565834
1000.0,149.39033556484185
1001.0,149.40049730037694
1002.0,149.4109960785693
1003.0,149.4217355833645
1004.0,149.4327110005853
1005.0,149.44390953180633
1006.0,149.45535775705383
1007.0,149.46697991390914
1008.0,149.4788334178205
1009.0,149.49087399571582
1010.0,149.50309620446262
1011.0,149.51548672186107
