T(K),Cp_Thiswork
200.0,29.27444445710836
201.0,29.279234108442303
202.0,29.284119353815235
203.0,29.289100423353318
204.0,29.29417751923165
205.0,29.29935080830837
206.0,29.304620430837304
207.0,29.3099865231532
208.0,29.315449164789676
209.0,29.32100842468624
210.0,29.326664346101264
211.0,29.33241694015075
212.0,29.338266207045532
213.0,29.344212108786582
214.0,29.350254583840027
215.0,29.356393560085234
216.0,29.362628929243805
217.0,29.368960572682692
218.0,29.375388331122423
219.0,29.381912041445897
220.0,29.388531512691458
221.0,29.395246527150192
222.0,29.402056852069215
223.0,29.408962234198015
224.0,29.415962400193223
225.0,29.423057052118345
226.0,29.430245882828125
227.0,29.437528561123173
228.0,29.44490473281833
229.0,29.45237403055213
230.0,29.45993606928303
231.0,29.46759044668889
232.0,29.475336739576626
233.0,29.483174520361132
234.0,29.491103329411104
235.0,29.499122703234995
236.0,29.50723215556576
237.0,29.515431189076182
238.0,29.523719295137766
239.0,29.53209594426241
240.0,29.5405605996633
241.0,29.549112702088813
242.0,29.557751691223597
243.0,29.56647698528487
244.0,29.575287993214417
245.0,29.58418410967972
246.0,29.593164725088158
247.0,29.60222921129955
248.0,29.611376931872577
249.0,29.62060723800718
250.0,29.629919476663975
251.0,29.639312979090974
252.0,29.648787067600992
253.0,29.65834105881584
254.0,29.667974260187513
255.0,29.677685966653165
256.0,29.687475469352144
257.0,29.697342050250857
258.0,29.70728498392116
259.0,29.717303537860523
260.0,29.727396973488048
261.0,29.737564543630864
262.0,29.74780549723353
263.0,29.758119076977678
264.0,29.768504518831595
265.0,29.77896105496067
266.0,29.789487911616675
267.0,29.800084310751675
268.0,29.81074946978032
269.0,29.821482602143327
270.0,29.832282917504088
271.0,29.84314962150847
272.0,29.854081916685484
273.0,29.86507900387806
274.0,29.876140078133393
275.0,29.887264335120975
276.0,29.898450966153842
277.0,29.909699161196585
278.0,29.921008109590332
279.0,29.932376995778526
280.0,29.94380500750017
281.0,29.95529132786423
282.0,29.966835140272437
283.0,29.978435625868194
284.0,29.99009196842229
285.0,30.0018033518549
286.0,30.013568954764608
287.0,30.025387959179838
288.0,30.03725954958571
289.0,30.049182909245417
290.0,30.061157219946928
291.0,30.07318166873806
292.0,30.085255436903758
293.0,30.09737771884317
294.0,30.109547695959684
295.0,30.121764563619063
296.0,30.134027511421074
297.0,30.14633573343204
298.0,30.158688425842385
299.0,30.171084787117675
300.0,30.18352401814539
301.0,30.196005319229435
302.0,30.208527902744578
303.0,30.221090971312634
304.0,30.23369374342996
305.0,30.246335424020558
306.0,30.25901524151267
307.0,30.271732410548076
308.0,30.284486159671562
309.0,30.297275713788977
310.0,30.310100308846998
311.0,30.32295917707453
312.0,30.335851562239153
313.0,30.34877670430366
314.0,30.361733855248147
315.0,30.37472226315247
316.0,30.3877411843292
317.0,30.400789879441188
318.0,30.413867617961223
319.0,30.426973665248845
320.0,30.44010730000281
321.0,30.453267792117963
322.0,30.466454434251794
323.0,30.479666510263833
324.0,30.49290331338075
325.0,30.506164146571187
326.0,30.519448308253423
327.0,30.532755106576506
328.0,30.54608385477235
329.0,30.559433871204828
330.0,30.57280448453861
331.0,30.586195018532344
332.0,30.599604807213623
333.0,30.613033195206164
334.0,30.626479521999542
335.0,30.6399431376366
336.0,30.65342339756637
337.0,30.666919668182565
338.0,30.680431315989452
339.0,30.693957707360056
340.0,30.707498219634275
341.0,30.72105224139856
342.0,30.73461916122259
343.0,30.748198367421935
344.0,30.76178926542287
345.0,30.7753912546115
346.0,30.789003757664332
347.0,30.802626179217267
348.0,30.81625794730802
349.0,30.829898514075055
350.0,30.843547227426882
351.0,30.857203624021558
352.0,30.87086715550881
353.0,30.884537153847546
354.0,30.89821320600445
355.0,30.911894717391952
356.0,30.925581161508013
357.0,30.939271953236027
358.0,30.9529667059623
359.0,30.966664781294448
360.0,30.980365674555603
361.0,30.994069018671425
362.0,31.007774123744014
363.0,31.021480634457753
364.0,31.035188003000655
365.0,31.04889582052907
366.0,31.062603482027836
367.0,31.07631058953472
368.0,31.090016752045848
369.0,31.103721379214708
370.0,31.11742409077948
371.0,31.131124374523402
372.0,31.14482186183218
373.0,31.158516120792417
374.0,31.172206654598803
375.0,31.1858930412372
376.0,31.199574864072577
377.0,31.213251782982404
378.0,31.226923249935872
379.0,31.240589006835883
380.0,31.254248515064205
381.0,31.26790145582364
382.0,31.281547444047522
383.0,31.2951860998079
384.0,31.308816975285442
385.0,31.322439773237697
386.0,31.33605405548426
387.0,31.349659461619403
388.0,31.36325563622365
389.0,31.376842302963187
390.0,31.390419042565362
391.0,31.403985514325328
392.0,31.417541307611813
393.0,31.431086240667476
394.0,31.44461983746362
395.0,31.4581418511657
396.0,31.471651964855965
397.0,31.485149790558843
398.0,31.498635095938596
399.0,31.512107501848078
400.0,31.525566709204035
401.0,31.539012499778693
402.0,31.552444507412936
403.0,31.565862446405056
404.0,31.579266035437882
405.0,31.59265499753939
406.0,31.606028982978295
407.0,31.619387877349773
408.0,31.63273126222822
409.0,31.646058954695327
410.0,31.65937062136426
411.0,31.6726660878306
412.0,31.685945106437156
413.0,31.699207355686447
414.0,31.712452595641164
415.0,31.72568059033528
416.0,31.73889118587673
417.0,31.7520839979236
418.0,31.765258958545466
419.0,31.778415769112364
420.0,31.79155413446255
421.0,31.804673919935063
422.0,31.817774916262856
423.0,31.830856917837288
424.0,31.843919722669543
425.0,31.856963053614855
426.0,31.86998671567465
427.0,31.882990596206703
428.0,31.89597442848575
429.0,31.90893810687765
430.0,31.921881292504658
431.0,31.93480396545157
432.0,31.94770587242199
433.0,31.9605868423248
434.0,31.973446707340464
435.0,31.98628530288397
436.0,31.99910246757068
437.0,32.01189804317943
438.0,32.02467179558959
439.0,32.03742365183731
440.0,32.05015346299201
441.0,32.0628610041424
442.0,32.07554613241538
443.0,32.08820878688466
444.0,32.10084883052853
445.0,32.113466050291095
446.0,32.12606031497847
447.0,32.138631496238624
448.0,32.15117946852703
449.0,32.16370410907512
450.0,32.176205376601345
451.0,32.18868299625316
452.0,32.201136932179956
453.0,32.21356707238946
454.0,32.22597330750392
455.0,32.23835553072873
456.0,32.2507135593977
457.0,32.26304737034281
458.0,32.27535678605108
459.0,32.287641788194975
460.0,32.299902204305475
461.0,32.31213802076205
462.0,32.32434907003214
463.0,32.3365353430712
464.0,32.348696599353346
465.0,32.36083291228243
466.0,32.372944123889766
467.0,32.38503015635918
468.0,32.397090934089015
469.0,32.409126383663825
470.0,32.421136433827826
471.0,32.43312101545566
472.0,32.44507998448581
473.0,32.4570134301633
474.0,32.468921135628705
475.0,32.48080311705651
476.0,32.492659238995444
477.0,32.50448952137131
478.0,32.51629383289657
479.0,32.528072197133916
480.0,32.53982456295398
481.0,32.5515507291837
482.0,32.56325080084595
483.0,32.57492465666438
484.0,32.58657232880565
485.0,32.59819369983849
486.0,32.60978865464364
487.0,32.62135730578213
488.0,32.63289954143619
489.0,32.64441532688032
490.0,32.65590462905299
491.0,32.66736741652972
492.0,32.678803585134226
493.0,32.69021325554139
494.0,32.701596252530855
495.0,32.712952625375124
496.0,32.72428227677916
497.0,32.735585258730936
498.0,32.74686155064833
499.0,32.758111060186216
500.0,32.769333843223315
501.0,32.780529810618816
502.0,32.79169902072738
503.0,32.8028413150154
504.0,32.81395689944445
505.0,32.82504554619564
506.0,32.83610739083087
507.0,32.84714235337115
508.0,32.858150427461226
509.0,32.869131608009404
510.0,32.88008596238967
511.0,32.89101334533428
512.0,32.90191382683464
513.0,32.91278740665437
514.0,32.92363408572012
515.0,32.9344538661085
516.0,32.945246751022744
517.0,32.95601274477842
518.0,32.96675178313966
519.0,32.97746394263993
520.0,32.988149230821676
521.0,32.99880758724473
522.0,33.00943909095416
523.0,33.02004375255995
524.0,33.030621515275506
525.0,33.04117239231404
526.0,33.05169646580923
527.0,33.062193682489976
528.0,33.07266412592754
529.0,33.083107745121346
530.0,33.093524557927694
531.0,33.10391458308301
532.0,33.11427790682781
533.0,33.124614482532195
534.0,33.134924331484555
535.0,33.1452074757921
536.0,33.15546393837228
537.0,33.16569380842948
538.0,33.17589697922152
539.0,33.18607354172398
540.0,33.1962235219343
541.0,33.20634694658452
542.0,33.21644384312874
543.0,33.226514239729156
544.0,33.23655810138822
545.0,33.246575521977114
546.0,33.256566531708984
547.0,33.26653116145108
548.0,33.276469379820824
549.0,33.286381282340756
550.0,33.29626690177737
551.0,33.306126209338814
552.0,33.31595923973262
553.0,33.3257660899231
554.0,33.335546795037885
555.0,33.34530132959604
556.0,33.35502973058742
557.0,33.36473209621561
558.0,33.37440840337356
559.0,33.38405869064973
560.0,33.39368305705847
561.0,33.403281481775586
562.0,33.41285400489336
563.0,33.422400666982334
564.0,33.43192150908796
565.0,33.4414166313513
566.0,33.450885958199905
567.0,33.460329649048575
568.0,33.46974768809527
569.0,33.4791400609941
570.0,33.48850692688363
571.0,33.497848271983656
572.0,33.50716408395663
573.0,33.51645452156847
574.0,33.5257195167009
575.0,33.534959171797084
576.0,33.54417353285149
577.0,33.55336259071419
578.0,33.562526503345985
579.0,33.57166520706239
580.0,33.58077875003954
581.0,33.58986728964674
582.0,33.598930764780945
583.0,33.60796927848256
584.0,33.616982825771125
585.0,33.62597145640058
586.0,33.63493532658684
587.0,33.64387437941866
588.0,33.652788665510336
589.0,33.661678235753115
590.0,33.67054324530735
591.0,33.679383588776226
592.0,33.68819942156774
593.0,33.69699074360567
594.0,33.705757607064136
595.0,33.71450011498181
596.0,33.72321826881986
597.0,33.731912171529366
598.0,33.74058177575556
599.0,33.74922723469512
600.0,33.757848502517035
601.0,33.76644573173131
602.0,33.77501897542447
603.0,33.783568190022955
604.0,33.79209347880577
605.0,33.80059489625695
606.0,33.809072497035004
607.0,33.81752638329721
608.0,33.82595651513008
609.0,33.83436299529852
610.0,33.84274587912908
611.0,33.85110522209946
612.0,33.85944107984355
613.0,33.867753508134655
614.0,33.87604251752141
615.0,33.88430820998056
616.0,33.8925506864988
617.0,33.900769868968666
618.0,33.908965948236904
619.0,33.91713889208197
620.0,33.92528880169227
621.0,33.93341573383685
622.0,33.941519702268366
623.0,33.94960080765014
624.0,33.95765910705656
625.0,33.96569461536373
626.0,33.97370743267281
627.0,33.98169757459941
628.0,33.98966514084035
629.0,33.997610147730825
630.0,34.00553269454762
631.0,34.013432798331124
632.0,34.021310557927265
633.0,34.02916599105728
634.0,34.03699915636972
635.0,34.04481015203296
636.0,34.052598996770506
637.0,34.060365788269735
638.0,34.068110507277495
639.0,34.0758333285232
640.0,34.083534195036194
641.0,34.091213242138615
642.0,34.09887045294212
643.0,34.10650599889824
644.0,34.114119826506936
645.0,34.1217120322451
646.0,34.12928271148897
647.0,34.1368318863087
648.0,34.14435957990212
649.0,34.15186592316456
650.0,34.159350939001136
651.0,34.16681472135251
652.0,34.174257258974194
653.0,34.18167864606414
654.0,34.18907894154139
655.0,34.19645820430394
656.0,34.203816493221794
657.0,34.21115390041163
658.0,34.2184704178269
659.0,34.225766137783886
660.0,34.233041086558394
661.0,34.24029538797483
662.0,34.24752906792577
663.0,34.25474215337349
664.0,34.26193473497222
665.0,34.269106871172504
666.0,34.27625862034516
667.0,34.28339004079869
668.0,34.29050116056005
669.0,34.29759209849596
670.0,34.3046628228971
671.0,34.311713481559565
672.0,34.31874407338685
673.0,34.3257546858609
674.0,34.33274537673084
675.0,34.3397161753894
676.0,34.34666716821681
677.0,34.35359841267983
678.0,34.360509938711076
679.0,34.36740180439681
680.0,34.37427412149111
681.0,34.381126866396215
682.0,34.38796017669737
683.0,34.39477403024262
684.0,34.401568562720215
685.0,34.408343778902506
686.0,34.41509973609919
687.0,34.421836516446895
688.0,34.428554151499924
689.0,34.43525269819746
690.0,34.441932237486036
691.0,34.448592825231685
692.0,34.455234469987644
693.0,34.46185729894896
694.0,34.46846129763546
695.0,34.475046568571656
696.0,34.481613144465996
697.0,34.48816108120571
698.0,34.49469045650422
699.0,34.5012013034753
700.0,34.50769367760413
701.0,34.51416765537734
702.0,34.52062327031185
703.0,34.52706057746249
704.0,34.53347963176577
705.0,34.539880487995724
706.0,34.54626322060558
707.0,34.55262784422586
708.0,34.5589744525641
709.0,34.565303080036905
710.0,34.57161378073223
711.0,34.577906608599406
712.0,34.58418163565789
713.0,34.59043887890185
714.0,34.596678428003074
715.0,34.602900300760936
716.0,34.609104585511865
717.0,34.615291300841605
718.0,34.62146053376331
719.0,34.62761230364575
720.0,34.63374669619607
721.0,34.63986374740114
722.0,34.64596349415818
723.0,34.65204602021904
724.0,34.65811134692319
725.0,34.6641595419578
726.0,34.67019065727474
727.0,34.676204758993265
728.0,34.68220187007366
729.0,34.688182056635746
730.0,34.69414535671538
731.0,34.70009184892306
732.0,34.70602155781137
733.0,34.71193456075587
734.0,34.71783088312176
735.0,34.72371058883262
736.0,34.72957371679882
737.0,34.7354203418943
738.0,34.74125049113687
739.0,34.747064227016544
740.0,34.75286159996248
741.0,34.758642649690216
742.0,34.76440744802715
743.0,34.77015601390876
744.0,34.77588842865079
745.0,34.78160472218357
746.0,34.78730495457312
747.0,34.79298917564145
748.0,34.79865742623302
749.0,34.80430976540044
750.0,34.809946242738015
751.0,34.815566899587836
752.0,34.8211717940384
753.0,34.82676096777986
754.0,34.83233447825641
755.0,34.8378923746546
756.0,34.84343469921286
757.0,34.848961501735744
758.0,34.8544728447841
759.0,34.859968758034725
760.0,34.865449309591874
761.0,34.87091453614155
762.0,34.876364487146326
763.0,34.88179921717496
764.0,34.887218769858826
765.0,34.89262319915255
766.0,34.89801254902569
767.0,34.9033868685882
768.0,34.908746214828476
769.0,34.914090624037485
770.0,34.919420152822696
771.0,34.92473484600626
772.0,34.930034755338326
773.0,34.93531992596778
774.0,34.9405904090387
775.0,34.94584624999318
776.0,34.951087497265
777.0,34.95631420099643
778.0,34.96152640711811
779.0,34.966724163768404
780.0,34.97190752013643
781.0,34.977076521676196
782.0,34.982231218904914
783.0,34.98737165692501
784.0,34.99249788441949
785.0,34.997609948284435
786.0,35.00270789594077
787.0,35.00779177414287
788.0,35.012861630129855
789.0,35.01791751093748
790.0,35.02295946348783
791.0,35.02798753311674
792.0,35.03300176740856
793.0,35.038002212859475
794.0,35.0429889158148
795.0,35.047961922422836
796.0,35.05292127612385
797.0,35.057867024893255
798.0,35.06279921743416
799.0,35.067717893365746
800.0,35.07262309732048
801.0,35.07751488119482
802.0,35.08239328661539
803.0,35.08725835411797
804.0,35.092110131941716
805.0,35.09694866897908
806.0,35.10177400030681
807.0,35.106586174153556
808.0,35.111385234153815
809.0,35.11617122366637
810.0,35.120944185831625
811.0,35.12570416353635
812.0,35.13045119325176
813.0,35.135185329477075
814.0,35.139906608364115
815.0,35.144615064973635
816.0,35.14931075426491
817.0,35.15399371096165
818.0,35.158663968603534
819.0,35.16332158266154
820.0,35.16796658630966
821.0,35.17259901971898
822.0,35.17721891439823
823.0,35.18182632642028
824.0,35.186421286887075
825.0,35.19100383478643
826.0,35.19557400879049
827.0,35.20013184722198
828.0,35.204677388218336
829.0,35.20921067929058
830.0,35.21373173850243
831.0,35.2182406126043
832.0,35.22273734890818
833.0,35.22722197394797
834.0,35.23169452397808
835.0,35.2361550349211
836.0,35.240603542524084
837.0,35.245040082154034
838.0,35.24946468890917
839.0,35.253877409589
840.0,35.25827826725849
841.0,35.26266729619192
842.0,35.26704453046891
843.0,35.27141000396108
844.0,35.275763750185305
845.0,35.28010581564776
846.0,35.28443622075052
847.0,35.28875499845734
848.0,35.29306218154767
849.0,35.297357816413175
850.0,35.30164192198648
851.0,35.305914530522706
852.0,35.310175674055884
853.0,35.31442539929645
854.0,35.31866372385164
855.0,35.32289067939903
856.0,35.327106297693895
857.0,35.33131062581768
858.0,35.33550368030822
859.0,35.33968549268097
860.0,35.34385611061779
861.0,35.34801554992892
862.0,35.35216384230977
863.0,35.35630103602044
864.0,35.36042712964775
865.0,35.36454220558856
866.0,35.368646245261985
867.0,35.37273931489578
868.0,35.37682142977457
869.0,35.38089264003048
870.0,35.3849529608257
871.0,35.389002425043024
872.0,35.39304108394607
873.0,35.39706895289439
874.0,35.40108608420732
875.0,35.405092493316175
876.0,35.409088214424344
877.0,35.41307330127206
878.0,35.41704776973272
879.0,35.421011674812235
880.0,35.42496503251774
881.0,35.428907878929635
882.0,35.43284027059623
883.0,35.43676224478085
884.0,35.440673798013115
885.0,35.44457502969308
886.0,35.44846591598442
887.0,35.452346558236215
888.0,35.456216932450715
889.0,35.4600771419147
890.0,35.46392716237502
891.0,35.467767077279106
892.0,35.47159692772261
893.0,35.475416732983646
894.0,35.47922655682463
895.0,35.48302641910786
896.0,35.48681638469809
897.0,35.49059647365742
898.0,35.494366751885046
899.0,35.498127239666985
900.0,35.501878003906754
901.0,35.50561906489658
902.0,35.509350490314716
903.0,35.51307232448356
904.0,35.51678458768507
905.0,35.52048734826294
906.0,35.52418062618345
907.0,35.52786448991683
908.0,35.53153895893384
909.0,35.535204101716445
910.0,35.53885996199475
911.0,35.54250655780902
912.0,35.546143957016
913.0,35.54977217626629
914.0,35.55339128280732
915.0,35.557001317693334
916.0,35.56060229478416
917.0,35.56419427942727
918.0,35.567777283314925
919.0,35.571351396545225
920.0,35.57491657509327
921.0,35.57847293353178
922.0,35.58202045114717
923.0,35.58555918651949
924.0,35.58908914202402
925.0,35.59261040045184
926.0,35.59612290521221
927.0,35.599626763350244
928.0,35.60312194107921
929.0,35.60660848588183
930.0,35.610086415214866
931.0,35.61355571529586
932.0,35.6170164266444
933.0,35.62046853010365
934.0,35.62391208987924
935.0,35.62734705226123
936.0,35.630773447196965
937.0,35.63419124304771
938.0,35.63760049384917
939.0,35.64100113230227
940.0,35.6443931768397
941.0,35.647776583316485
942.0,35.651151364153534
943.0,35.65451752972862
944.0,35.657874965464984
945.0,35.6612237366933
946.0,35.664563753409006
947.0,35.66789501493693
948.0,35.67121748809909
949.0,35.674531136876645
950.0,35.677835892448
951.0,35.68113177904228
952.0,35.68441869365857
953.0,35.68769662674917
954.0,35.69096550621015
955.0,35.69422535574828
956.0,35.69747607172097
957.0,35.700717649146135
958.0,35.703950053690214
959.0,35.70717325420945
960.0,35.710387224160435
961.0,35.71359190964667
962.0,35.71678732938353
963.0,35.719973477511296
964.0,35.72315035753783
965.0,35.7263179846351
966.0,35.72947638640402
967.0,35.73262557107072
968.0,35.73576566632655
969.0,35.73889668144868
970.0,35.74201875094297
971.0,35.74513199781475
972.0,35.74823657258574
973.0,35.75133265534956
974.0,35.75442042409711
975.0,35.75750019842843
976.0,35.76057219741038
977.0,35.763636825726
978.0,35.76669439541109
979.0,35.76974537686816
980.0,35.77279026422952
981.0,35.7758296142383
982.0,35.77886405327132
983.0,35.781894282273505
984.0,35.78492104734065
985.0,35.78794529271001
986.0,35.79096794778609
987.0,35.7939900464048
988.0,35.79701284398843
989.0,35.80003756816404
990.0,35.803065688365415
991.0,35.80609881381386
992.0,35.809138591725095
993.0,35.81218694318948
994.0,35.815245924599104
995.0,35.81831781729613
996.0,35.8214049868362
997.0,35.824510126876234
998.0,35.82763611988345
999.0,35.83078609367695
1000.0,35.832959972964446
1001.0,35.83586223977919
1002.0,35.838757547347775
1003.0,35.8416459153987
1004.0,35.84452736360774
1005.0,35.84740191159804
1006.0,35.850269578940114
1007.0,35.85313038515193
1008.0,35.85598438920019
1009.0,35.858831531619884
1010.0,35.86167187114793
1011.0,35.86450542709252
1012.0,35.86733221870959
1013.0,35.87015226520282
1014.0,35.87296558572368
1015.0,35.875772239735724
1016.0,35.878572165679444
1017.0,35.88136542279222
1018.0,35.884152070745216
1019.0,35.886932047094476
